0.00025,1.11E+00
0.0005,1.05E+00
0.00075,9.20E-01
0.001,7.28E-01
0.00125,5.07E-01
0.0015,2.82E-01
0.00175,7.97E-02
0.002,-8.47E-02
0.00225,-2.06E-01
0.0025,-2.83E-01
0.00275,-3.18E-01
0.003,-3.16E-01
0.00325,-2.89E-01
0.0035,-2.47E-01
0.00375,-2.00E-01
0.004,-1.54E-01
0.00425,-1.15E-01
0.0045,-8.53E-02
0.00475,-6.49E-02
0.005,-5.24E-02
0.00525,-4.41E-02
0.0055,-3.81E-02
0.00575,-3.37E-02
0.006,-3.01E-02
0.00625,-2.67E-02
0.0065,-2.31E-02
0.00675,-1.90E-02
0.007,-1.42E-02
0.00725,-8.82E-03
0.0075,-2.93E-03
0.00775,3.61E-03
0.008,1.09E-02
0.00825,1.89E-02
0.0085,2.78E-02
0.00875,3.75E-02
0.009,4.81E-02
0.00925,5.96E-02
0.0095,7.20E-02
0.00975,8.53E-02
0.01,9.94E-02
0.01025,1.14E-01
0.0105,1.30E-01
0.01075,1.47E-01
0.011,1.65E-01
0.01125,1.83E-01
0.0115,2.02E-01
0.01175,2.21E-01
0.012,2.40E-01
0.01225,2.59E-01
0.0125,2.77E-01
0.01275,2.95E-01
0.013,3.13E-01
0.01325,3.29E-01
0.0135,3.45E-01
0.01375,3.60E-01
0.014,3.73E-01
0.01425,3.85E-01
0.0145,3.95E-01
0.01475,4.04E-01
0.015,4.11E-01
0.01525,4.16E-01
0.0155,4.20E-01
0.01575,4.21E-01
0.016,4.20E-01
0.01625,4.16E-01
0.0165,4.10E-01
0.01675,4.02E-01
0.017,3.93E-01
0.01725,3.81E-01
0.0175,3.68E-01
0.01775,3.53E-01
0.018,3.38E-01
0.01825,3.21E-01
0.0185,3.04E-01
0.01875,2.86E-01
0.019,2.67E-01
0.01925,2.48E-01
0.0195,2.29E-01
0.01975,2.11E-01
0.02,1.92E-01
0.02025,1.73E-01
0.0205,1.55E-01
0.02075,1.38E-01
0.021,1.21E-01
0.02125,1.04E-01
0.0215,8.89E-02
0.02175,7.44E-02
0.022,6.08E-02
0.02225,4.82E-02
0.0225,3.67E-02
0.02275,2.63E-02
0.023,1.69E-02
0.02325,8.45E-03
0.0235,8.62E-04
0.02375,-5.90E-03
0.024,-1.19E-02
0.02425,-1.71E-02
0.0245,-2.17E-02
0.02475,-2.57E-02
0.025,-2.91E-02
0.02525,-3.20E-02
0.0255,-3.44E-02
0.02575,-3.63E-02
0.026,-3.78E-02
0.02625,-3.90E-02
0.0265,-3.98E-02
0.02675,-4.04E-02
0.027,-4.07E-02
0.02725,-4.08E-02
0.0275,-4.07E-02
0.02775,-4.04E-02
0.028,-4.00E-02
0.02825,-3.95E-02
0.0285,-3.89E-02
0.02875,-3.83E-02
0.029,-3.76E-02
0.02925,-3.68E-02
0.0295,-3.60E-02
0.02975,-3.52E-02
0.03,-3.43E-02
0.03025,-3.34E-02
0.0305,-3.25E-02
0.03075,-3.15E-02
0.031,-3.06E-02
0.03125,-2.96E-02
0.0315,-2.86E-02
0.03175,-2.77E-02
0.032,-2.67E-02
0.03225,-2.57E-02
0.0325,-2.48E-02
0.03275,-2.38E-02
0.033,-2.28E-02
0.03325,-2.18E-02
0.0335,-2.09E-02
0.03375,-1.99E-02
0.034,-1.89E-02
0.03425,-1.79E-02
0.0345,-1.68E-02
0.03475,-1.58E-02
0.035,-1.47E-02
0.03525,-1.36E-02
0.0355,-1.25E-02
0.03575,-1.13E-02
0.036,-9.91E-03
0.03625,-8.29E-03
0.0365,-6.36E-03
0.03675,-4.04E-03
0.037,-1.25E-03
0.03725,2.09E-03
0.0375,6.08E-03
0.03775,1.08E-02
0.038,1.64E-02
0.03825,2.28E-02
0.0385,3.04E-02
0.03875,3.90E-02
0.039,4.89E-02
0.03925,6.02E-02
0.0395,7.30E-02
0.03975,8.75E-02
0.04,1.04E-01
0.04025,1.22E-01
0.0405,1.41E-01
0.04075,1.61E-01
0.041,1.80E-01
0.04125,1.99E-01
0.0415,2.17E-01
0.04175,2.34E-01
0.042,2.49E-01
0.04225,2.62E-01
0.0425,2.72E-01
0.04275,2.80E-01
0.043,2.86E-01
0.04325,2.88E-01
0.0435,2.88E-01
0.04375,2.84E-01
0.044,2.78E-01
0.04425,2.68E-01
0.0445,2.55E-01
0.04475,2.39E-01
0.045,2.22E-01
0.04525,2.04E-01
0.0455,1.85E-01
0.04575,1.66E-01
0.046,1.48E-01
0.04625,1.29E-01
0.0465,1.12E-01
0.04675,9.62E-02
0.047,8.15E-02
0.04725,6.82E-02
0.0475,5.65E-02
0.04775,4.64E-02
0.048,3.77E-02
0.04825,3.08E-02
0.0485,2.54E-02
0.04875,2.06E-02
0.049,1.56E-02
0.04925,9.70E-03
0.0495,2.13E-03
0.04975,-7.85E-03
0.05,-2.10E-02
0.05025,-3.80E-02
0.0505,-5.95E-02
0.05075,-8.63E-02
0.051,-1.20E-01
0.05125,-1.50E-01
0.0515,-1.66E-01
0.05175,-1.58E-01
0.052,-1.19E-01
0.05225,-4.52E-02
0.0525,6.52E-02
0.05275,2.11E-01
0.053,3.89E-01
0.05325,5.93E-01
0.0535,8.07E-01
0.05375,9.94E-01
0.054,1.12E+00
0.05425,1.17E+00
0.0545,1.13E+00
0.05475,1.00E+00
0.055,8.17E-01
0.05525,5.96E-01
0.0555,3.72E-01
0.05575,1.68E-01
0.056,-1.05E-03
0.05625,-1.26E-01
0.0565,-2.04E-01
0.05675,-2.36E-01
0.057,-2.35E-01
0.05725,-2.11E-01
0.0575,-1.74E-01
0.05775,-1.30E-01
0.058,-8.66E-02
0.05825,-4.77E-02
0.0585,-1.64E-02
0.05875,5.54E-03
0.059,1.98E-02
0.05925,2.91E-02
0.0595,3.51E-02
0.05975,3.91E-02
0.06,4.22E-02
0.06025,4.52E-02
0.0605,4.86E-02
0.06075,5.26E-02
0.061,5.71E-02
0.06125,6.20E-02
0.0615,6.73E-02
0.06175,7.33E-02
0.062,8.00E-02
0.06225,8.75E-02
0.0625,9.58E-02
0.06275,1.05E-01
0.063,1.15E-01
0.06325,1.26E-01
0.0635,1.37E-01
0.06375,1.50E-01
0.064,1.64E-01
0.06425,1.78E-01
0.0645,1.94E-01
0.06475,2.10E-01
0.065,2.27E-01
0.06525,2.44E-01
0.0655,2.62E-01
0.06575,2.81E-01
0.066,2.99E-01
0.06625,3.18E-01
0.0665,3.36E-01
0.06675,3.54E-01
0.067,3.71E-01
0.06725,3.88E-01
0.0675,4.04E-01
0.06775,4.20E-01
0.068,4.33E-01
0.06825,4.46E-01
0.0685,4.57E-01
0.06875,4.66E-01
0.069,4.74E-01
0.06925,4.79E-01
0.0695,4.82E-01
0.06975,4.83E-01
0.07,4.82E-01
0.07025,4.79E-01
0.0705,4.74E-01
0.07075,4.67E-01
0.071,4.58E-01
0.07125,4.47E-01
0.0715,4.35E-01
0.07175,4.21E-01
0.072,4.06E-01
0.07225,3.89E-01
0.0725,3.72E-01
0.07275,3.54E-01
0.073,3.35E-01
0.07325,3.15E-01
0.0735,2.96E-01
0.07375,2.76E-01
0.074,2.57E-01
0.07425,2.39E-01
0.0745,2.20E-01
0.07475,2.03E-01
0.075,1.86E-01
0.07525,1.70E-01
0.0755,1.54E-01
0.07575,1.40E-01
0.076,1.27E-01
0.07625,1.14E-01
0.0765,1.03E-01
0.07675,9.21E-02
0.077,8.27E-02
0.07725,7.41E-02
0.0775,6.66E-02
0.07775,5.99E-02
0.078,5.40E-02
0.07825,4.89E-02
0.0785,4.45E-02
0.07875,4.06E-02
0.079,3.74E-02
0.07925,3.46E-02
0.0795,3.23E-02
0.07975,3.04E-02
0.08,2.89E-02
0.08025,2.77E-02
0.0805,2.68E-02
0.08075,2.61E-02
0.081,2.56E-02
0.08125,2.53E-02
0.0815,2.51E-02
0.08175,2.51E-02
0.082,2.51E-02
0.08225,2.51E-02
0.0825,2.53E-02
0.08275,2.54E-02
0.083,2.55E-02
0.08325,2.57E-02
0.0835,2.58E-02
0.08375,2.60E-02
0.084,2.61E-02
0.08425,2.62E-02
0.0845,2.62E-02
0.08475,2.63E-02
0.085,2.63E-02
0.08525,2.62E-02
0.0855,2.61E-02
0.08575,2.60E-02
0.086,2.59E-02
0.08625,2.58E-02
0.0865,2.56E-02
0.08675,2.55E-02
0.087,2.54E-02
0.08725,2.52E-02
0.0875,2.51E-02
0.08775,2.51E-02
0.088,2.51E-02
0.08825,2.52E-02
0.0885,2.53E-02
0.08875,2.56E-02
0.089,2.59E-02
0.08925,2.65E-02
0.0895,2.71E-02
0.08975,2.80E-02
0.09,2.90E-02
0.09025,3.02E-02
0.0905,3.19E-02
0.09075,3.40E-02
0.091,3.67E-02
0.09125,4.01E-02
0.0915,4.42E-02
0.09175,4.92E-02
0.092,5.52E-02
0.09225,6.23E-02
0.0925,7.05E-02
0.09275,7.99E-02
0.093,9.07E-02
0.09325,1.03E-01
0.0935,1.16E-01
0.09375,1.32E-01
0.094,1.49E-01
0.09425,1.67E-01
0.0945,1.87E-01
0.09475,2.06E-01
0.095,2.26E-01
0.09525,2.46E-01
0.0955,2.65E-01
0.09575,2.83E-01
0.096,2.99E-01
0.09625,3.13E-01
0.0965,3.25E-01
0.09675,3.35E-01
0.097,3.42E-01
0.09725,3.45E-01
0.0975,3.45E-01
0.09775,3.41E-01
0.098,3.33E-01
0.09825,3.22E-01
0.0985,3.09E-01
0.09875,2.93E-01
0.099,2.76E-01
0.09925,2.58E-01
0.0995,2.39E-01
0.09975,2.21E-01
0.1,2.02E-01
0.10025,1.84E-01
0.1005,1.67E-01
0.10075,1.50E-01
0.101,1.35E-01
0.10125,1.22E-01
0.1015,1.09E-01
0.10175,9.85E-02
0.102,8.93E-02
0.10225,8.22E-02
0.1025,7.85E-02
0.10275,7.58E-02
0.103,7.19E-02
0.10325,6.53E-02
0.1035,5.49E-02
0.10375,4.03E-02
0.104,2.12E-02
0.10425,-1.71E-03
0.1045,-2.75E-02
0.10475,-5.46E-02
0.105,-8.11E-02
0.10525,-1.04E-01
0.1055,-1.21E-01
0.10575,-1.19E-01
0.106,-8.60E-02
0.10625,-1.48E-02
0.1065,9.76E-02
0.10675,2.49E-01
0.107,4.33E-01
0.10725,6.38E-01
0.1075,8.46E-01
0.10775,1.03E+00
0.108,1.15E+00
0.10825,1.20E+00
0.1085,1.15E+00
0.10875,1.02E+00
0.109,8.32E-01
0.10925,6.11E-01
0.1095,3.85E-01
0.10975,1.77E-01
0.11,1.75E-03
0.11025,-1.31E-01
0.1105,-2.18E-01
0.11075,-2.63E-01
0.111,-2.70E-01
0.11125,-2.48E-01
0.1115,-2.11E-01
0.11175,-1.65E-01
0.112,-1.20E-01
0.11225,-7.93E-02
0.1125,-4.64E-02
0.11275,-2.22E-02
0.113,-5.41E-03
0.11325,7.12E-03
0.1135,1.64E-02
0.11375,2.32E-02
0.114,2.82E-02
0.11425,3.19E-02
0.1145,3.49E-02
0.11475,3.75E-02
0.115,4.03E-02
0.11525,4.35E-02
0.1155,4.74E-02
0.11575,5.22E-02
0.116,5.80E-02
0.11625,6.50E-02
0.1165,7.30E-02
0.11675,8.22E-02
0.117,9.22E-02
0.11725,1.03E-01
0.1175,1.14E-01
0.11775,1.27E-01
0.118,1.40E-01
0.11825,1.53E-01
0.1185,1.68E-01
0.11875,1.84E-01
0.119,2.00E-01
0.11925,2.17E-01
0.1195,2.34E-01
0.11975,2.52E-01
0.12,2.70E-01
0.12025,2.89E-01
0.1205,3.07E-01
0.12075,3.26E-01
0.121,3.44E-01
0.12125,3.62E-01
0.1215,3.79E-01
0.12175,3.95E-01
0.122,4.11E-01
0.12225,4.25E-01
0.1225,4.38E-01
0.12275,4.50E-01
0.123,4.59E-01
0.12325,4.67E-01
0.1235,4.73E-01
0.12375,4.77E-01
0.124,4.80E-01
0.12425,4.80E-01
0.1245,4.77E-01
0.12475,4.73E-01
0.125,4.67E-01
0.12525,4.59E-01
0.1255,4.49E-01
0.12575,4.38E-01
0.126,4.24E-01
0.12625,4.10E-01
0.1265,3.94E-01
0.12675,3.77E-01
0.127,3.59E-01
0.12725,3.40E-01
0.1275,3.21E-01
0.12775,3.02E-01
0.128,2.82E-01
0.12825,2.63E-01
0.1285,2.43E-01
0.12875,2.24E-01
0.129,2.06E-01
0.12925,1.88E-01
0.1295,1.70E-01
0.12975,1.54E-01
0.13,1.38E-01
0.13025,1.23E-01
0.1305,1.09E-01
0.13075,9.59E-02
0.131,8.38E-02
0.13125,7.26E-02
0.1315,6.23E-02
0.13175,5.31E-02
0.132,4.47E-02
0.13225,3.72E-02
0.1325,3.05E-02
0.13275,2.45E-02
0.133,1.91E-02
0.13325,1.44E-02
0.1335,1.03E-02
0.13375,6.63E-03
0.134,3.47E-03
0.13425,7.26E-04
0.1345,-1.63E-03
0.13475,-3.64E-03
0.135,-5.35E-03
0.13525,-6.77E-03
0.1355,-7.96E-03
0.13575,-8.94E-03
0.136,-9.74E-03
0.13625,-1.04E-02
0.1365,-1.09E-02
0.13675,-1.13E-02
0.137,-1.16E-02
0.13725,-1.18E-02
0.1375,-1.19E-02
0.13775,-1.20E-02
0.138,-1.21E-02
0.13825,-1.21E-02
0.1385,-1.21E-02
0.13875,-1.21E-02
0.139,-1.20E-02
0.13925,-1.19E-02
0.1395,-1.18E-02
0.13975,-1.17E-02
0.14,-1.15E-02
0.14025,-1.14E-02
0.1405,-1.12E-02
0.14075,-1.11E-02
0.141,-1.09E-02
0.14125,-1.08E-02
0.1415,-1.07E-02
0.14175,-1.06E-02
0.142,-1.04E-02
0.14225,-1.03E-02
0.1425,-1.02E-02
0.14275,-9.98E-03
0.143,-9.79E-03
0.14325,-9.55E-03
0.1435,-9.27E-03
0.14375,-8.93E-03
0.144,-8.52E-03
0.14425,-8.03E-03
0.1445,-7.44E-03
0.14475,-6.74E-03
0.145,-5.92E-03
0.14525,-4.96E-03
0.1455,-3.77E-03
0.14575,-2.24E-03
0.146,-2.46E-04
0.14625,2.30E-03
0.1465,5.52E-03
0.14675,9.49E-03
0.147,1.43E-02
0.14725,2.01E-02
0.1475,2.69E-02
0.14775,3.49E-02
0.148,4.41E-02
0.14825,5.45E-02
0.1485,6.64E-02
0.14875,7.97E-02
0.149,9.46E-02
0.14925,1.11E-01
0.1495,1.28E-01
0.14975,1.46E-01
0.15,1.64E-01
0.15025,1.82E-01
0.1505,2.00E-01
0.15075,2.17E-01
0.151,2.32E-01
0.15125,2.46E-01
0.1515,2.58E-01
0.15175,2.68E-01
0.152,2.75E-01
0.15225,2.79E-01
0.1525,2.79E-01
0.15275,2.76E-01
0.153,2.70E-01
0.15325,2.60E-01
0.1535,2.48E-01
0.15375,2.34E-01
0.154,2.17E-01
0.15425,2.00E-01
0.1545,1.82E-01
0.15475,1.63E-01
0.155,1.43E-01
0.15525,1.25E-01
0.1555,1.06E-01
0.15575,8.84E-02
0.156,7.18E-02
0.15625,5.65E-02
0.1565,4.27E-02
0.15675,3.06E-02
0.157,1.97E-02
0.15725,1.04E-02
0.1575,2.58E-03
0.15775,-3.92E-03
0.158,-9.40E-03
0.15825,-1.44E-02
0.1585,-1.95E-02
0.15875,-2.56E-02
0.159,-3.37E-02
0.15925,-4.50E-02
0.1595,-6.08E-02
0.15975,-8.27E-02
0.16,-1.10E-01
0.16025,-1.41E-01
0.1605,-1.68E-01
0.16075,-1.87E-01
0.161,-1.91E-01
0.16125,-1.74E-01
0.1615,-1.27E-01
0.16175,-4.26E-02
0.162,8.09E-02
0.16225,2.43E-01
0.1625,4.35E-01
0.16275,6.44E-01
0.163,8.48E-01
0.16325,1.02E+00
0.1635,1.13E+00
0.16375,1.15E+00
0.164,1.09E+00
0.16425,9.45E-01
0.1645,7.47E-01
0.16475,5.23E-01
0.165,2.98E-01
0.16525,9.44E-02
0.1655,-7.42E-02
0.16575,-2.00E-01
0.166,-2.81E-01
0.16625,-3.19E-01
0.1665,-3.23E-01
0.16675,-3.04E-01
0.167,-2.69E-01
0.16725,-2.25E-01
0.1675,-1.80E-01
0.16775,-1.38E-01
0.168,-1.04E-01
0.16825,-8.06E-02
0.1685,-6.47E-02
0.16875,-5.42E-02
0.169,-4.73E-02
0.16925,-4.27E-02
0.1695,-3.91E-02
0.16975,-3.58E-02
0.17,-3.24E-02
0.17025,-2.88E-02
0.1705,-2.49E-02
0.17075,-2.05E-02
0.171,-1.55E-02
0.17125,-9.93E-03
0.1715,-3.71E-03
0.17175,3.21E-03
0.172,1.09E-02
0.17225,1.93E-02
0.1725,2.85E-02
0.17275,3.86E-02
0.173,4.95E-02
0.17325,6.12E-02
0.1735,7.38E-02
0.17375,8.72E-02
0.174,1.01E-01
0.17425,1.17E-01
0.1745,1.33E-01
0.17475,1.50E-01
0.175,1.67E-01
0.17525,1.85E-01
0.1755,2.03E-01
0.17575,2.21E-01
0.176,2.39E-01
0.17625,2.57E-01
0.1765,2.75E-01
0.17675,2.92E-01
0.177,3.08E-01
0.17725,3.24E-01
0.1775,3.39E-01
0.17775,3.52E-01
0.178,3.65E-01
0.17825,3.76E-01
0.1785,3.86E-01
0.17875,3.94E-01
0.179,4.00E-01
0.17925,4.05E-01
0.1795,4.08E-01
0.17975,4.08E-01
0.18,4.07E-01
0.18025,4.03E-01
0.1805,3.97E-01
0.18075,3.89E-01
0.181,3.79E-01
0.18125,3.68E-01
0.1815,3.55E-01
0.18175,3.41E-01
0.182,3.25E-01
0.18225,3.09E-01
0.1825,2.92E-01
0.18275,2.74E-01
0.183,2.55E-01
0.18325,2.36E-01
0.1835,2.17E-01
0.18375,1.97E-01
0.184,1.78E-01
0.18425,1.59E-01
0.1845,1.40E-01
0.18475,1.21E-01
0.185,1.03E-01
0.18525,8.53E-02
0.1855,6.87E-02
0.18575,5.29E-02
0.186,3.82E-02
0.18625,2.46E-02
0.1865,1.19E-02
0.18675,1.09E-04
0.187,-1.07E-02
0.18725,-2.07E-02
0.1875,-2.98E-02
0.18775,-3.81E-02
0.188,-4.56E-02
0.18825,-5.25E-02
0.1885,-5.86E-02
0.18875,-6.40E-02
0.189,-6.88E-02
0.18925,-7.31E-02
0.1895,-7.68E-02
0.18975,-8.00E-02
0.19,-8.28E-02
0.19025,-8.51E-02
0.1905,-8.71E-02
0.19075,-8.87E-02
0.191,-9.01E-02
0.19125,-9.13E-02
0.1915,-9.22E-02
0.19175,-9.30E-02
0.192,-9.38E-02
0.19225,-9.44E-02
0.1925,-9.49E-02
0.19275,-9.53E-02
0.193,-9.57E-02
0.19325,-9.60E-02
0.1935,-9.63E-02
0.19375,-9.64E-02
0.194,-9.66E-02
0.19425,-9.67E-02
0.1945,-9.68E-02
0.19475,-9.69E-02
0.195,-9.70E-02
0.19525,-9.71E-02
0.1955,-9.71E-02
0.19575,-9.71E-02
0.196,-9.72E-02
0.19625,-9.72E-02
0.1965,-9.72E-02
0.19675,-9.72E-02
0.197,-9.72E-02
0.19725,-9.71E-02
0.1975,-9.71E-02
0.19775,-9.70E-02
0.198,-9.69E-02
0.19825,-9.67E-02
0.1985,-9.65E-02
0.19875,-9.63E-02
0.199,-9.60E-02
0.19925,-9.56E-02
0.1995,-9.53E-02
0.19975,-9.49E-02
0.2,-9.44E-02
0.20025,-9.38E-02
0.2005,-9.31E-02
0.20075,-9.22E-02
0.201,-9.10E-02
0.20125,-8.96E-02
0.2015,-8.78E-02
0.20175,-8.56E-02
0.202,-8.28E-02
0.20225,-7.95E-02
0.2025,-7.55E-02
0.20275,-7.09E-02
0.203,-6.53E-02
0.20325,-5.87E-02
0.2035,-5.09E-02
0.20375,-4.17E-02
0.204,-3.10E-02
0.20425,-1.89E-02
0.2045,-5.34E-03
0.20475,9.59E-03
0.205,2.58E-02
0.20525,4.30E-02
0.2055,6.11E-02
0.20575,7.98E-02
0.206,9.88E-02
0.20625,1.18E-01
0.2065,1.36E-01
0.20675,1.54E-01
0.207,1.70E-01
0.20725,1.84E-01
0.2075,1.96E-01
0.20775,2.05E-01
0.208,2.11E-01
0.20825,2.14E-01
0.2085,2.13E-01
0.20875,2.10E-01
0.209,2.03E-01
0.20925,1.93E-01
0.2095,1.81E-01
0.20975,1.66E-01
0.21,1.50E-01
0.21025,1.32E-01
0.2105,1.13E-01
0.21075,9.36E-02
0.211,7.42E-02
0.21125,5.50E-02
0.2115,3.65E-02
0.21175,1.90E-02
0.212,2.60E-03
0.21225,-1.27E-02
0.2125,-2.67E-02
0.21275,-3.91E-02
0.213,-4.98E-02
0.21325,-5.88E-02
0.2135,-6.61E-02
0.21375,-7.22E-02
0.214,-7.73E-02
0.21425,-8.22E-02
0.2145,-8.76E-02
0.21475,-9.43E-02
0.215,-1.03E-01
0.21525,-1.16E-01
0.2155,-1.34E-01
0.21575,-1.68E-01
0.216,-2.12E-01
0.21625,-2.54E-01
0.2165,-2.85E-01
0.21675,-2.98E-01
0.217,-2.88E-01
0.21725,-2.49E-01
0.2175,-1.80E-01
0.21775,-8.05E-02
0.218,4.94E-02
0.21825,2.07E-01
0.2185,3.87E-01
0.21875,5.84E-01
0.219,7.88E-01
0.21925,9.62E-01
0.2195,1.07E+00
0.21975,1.10E+00
0.22,1.04E+00
0.22025,9.06E-01
0.2205,7.11E-01
0.22075,4.87E-01
0.221,2.63E-01
0.22125,6.20E-02
0.2215,-1.02E-01
0.22175,-2.20E-01
0.222,-2.93E-01
0.22225,-3.22E-01
0.2225,-3.17E-01
0.22275,-2.90E-01
0.223,-2.50E-01
0.22325,-2.05E-01
0.2235,-1.62E-01
0.22375,-1.24E-01
0.224,-9.45E-02
0.22425,-7.36E-02
0.2245,-5.97E-02
0.22475,-5.03E-02
0.225,-4.42E-02
0.22525,-4.01E-02
0.2255,-3.70E-02
0.22575,-3.42E-02
0.226,-3.10E-02
0.22625,-2.73E-02
0.2265,-2.28E-02
0.22675,-1.76E-02
0.227,-1.20E-02
0.22725,-6.00E-03
0.2275,6.22E-04
0.22775,7.95E-03
0.228,1.60E-02
0.22825,2.49E-02
0.2285,3.46E-02
0.22875,4.52E-02
0.229,5.66E-02
0.22925,6.89E-02
0.2295,8.21E-02
0.22975,9.60E-02
0.23,1.11E-01
0.23025,1.26E-01
0.2305,1.43E-01
0.23075,1.60E-01
0.231,1.77E-01
0.23125,1.95E-01
0.2315,2.13E-01
0.23175,2.31E-01
0.232,2.49E-01
0.23225,2.66E-01
0.2325,2.83E-01
0.23275,2.99E-01
0.233,3.14E-01
0.23325,3.28E-01
0.2335,3.41E-01
0.23375,3.53E-01
0.234,3.63E-01
0.23425,3.71E-01
0.2345,3.78E-01
0.23475,3.83E-01
0.235,3.86E-01
0.23525,3.87E-01
0.2355,3.86E-01
0.23575,3.82E-01
0.236,3.77E-01
0.23625,3.69E-01
0.2365,3.59E-01
0.23675,3.48E-01
0.237,3.35E-01
0.23725,3.20E-01
0.2375,3.05E-01
0.23775,2.88E-01
0.238,2.71E-01
0.23825,2.53E-01
0.2385,2.35E-01
0.23875,2.16E-01
0.239,1.97E-01
0.23925,1.78E-01
0.2395,1.59E-01
0.23975,1.40E-01
0.24,1.22E-01
0.24025,1.04E-01
0.2405,8.70E-02
0.24075,7.05E-02
0.241,5.47E-02
0.24125,3.99E-02
0.2415,2.61E-02
0.24175,1.34E-02
0.242,1.72E-03
0.24225,-8.88E-03
0.2425,-1.85E-02
0.24275,-2.72E-02
0.243,-3.50E-02
0.24325,-4.20E-02
0.2435,-4.82E-02
0.24375,-5.37E-02
0.244,-5.85E-02
0.24425,-6.27E-02
0.2445,-6.63E-02
0.24475,-6.93E-02
0.245,-7.19E-02
0.24525,-7.40E-02
0.2455,-7.57E-02
0.24575,-7.70E-02
0.246,-7.80E-02
0.24625,-7.87E-02
0.2465,-7.91E-02
0.24675,-7.94E-02
0.247,-7.94E-02
0.24725,-7.94E-02
0.2475,-7.92E-02
0.24775,-7.89E-02
0.248,-7.86E-02
0.24825,-7.83E-02
0.2485,-7.78E-02
0.24875,-7.74E-02
0.249,-7.69E-02
0.24925,-7.63E-02
0.2495,-7.58E-02
0.24975,-7.52E-02
0.25,-7.46E-02
0.25025,-7.40E-02
0.2505,-7.34E-02
0.25075,-7.28E-02
0.251,-7.22E-02
0.25125,-7.16E-02
0.2515,-7.10E-02
0.25175,-7.04E-02
0.252,-6.98E-02
0.25225,-6.92E-02
0.2525,-6.86E-02
0.25275,-6.81E-02
0.253,-6.75E-02
0.25325,-6.69E-02
0.2535,-6.63E-02
0.25375,-6.57E-02
0.254,-6.51E-02
0.25425,-6.44E-02
0.2545,-6.37E-02
0.25475,-6.30E-02
0.255,-6.22E-02
0.25525,-6.13E-02
0.2555,-6.03E-02
0.25575,-5.90E-02
0.256,-5.76E-02
0.25625,-5.59E-02
0.2565,-5.38E-02
0.25675,-5.12E-02
0.257,-4.81E-02
0.25725,-4.43E-02
0.2575,-3.98E-02
0.25775,-3.44E-02
0.258,-2.79E-02
0.25825,-2.04E-02
0.2585,-1.14E-02
0.25875,-1.09E-03
0.259,1.07E-02
0.25925,2.40E-02
0.2595,3.87E-02
0.25975,5.47E-02
0.26,7.19E-02
0.26025,8.99E-02
0.2605,1.09E-01
0.26075,1.28E-01
0.261,1.47E-01
0.26125,1.65E-01
0.2615,1.82E-01
0.26175,1.98E-01
0.262,2.12E-01
0.26225,2.23E-01
0.2625,2.32E-01
0.26275,2.37E-01
0.263,2.39E-01
0.26325,2.38E-01
0.2635,2.33E-01
0.26375,2.26E-01
0.264,2.15E-01
0.26425,2.02E-01
0.2645,1.87E-01
0.26475,1.70E-01
0.265,1.52E-01
0.26525,1.33E-01
0.2655,1.14E-01
0.26575,9.56E-02
0.266,7.77E-02
0.26625,6.08E-02
0.2665,4.51E-02
0.26675,3.08E-02
0.267,1.80E-02
0.26725,6.71E-03
0.2675,-2.98E-03
0.26775,-1.12E-02
0.268,-1.81E-02
0.26825,-2.39E-02
0.2685,-2.86E-02
0.26875,-3.27E-02
0.269,-3.76E-02
0.26925,-4.43E-02
0.2695,-5.40E-02
0.26975,-6.76E-02
0.27,-8.56E-02
0.27025,-1.09E-01
0.2705,-1.38E-01
0.27075,-1.69E-01
0.271,-1.94E-01
0.27125,-2.05E-01
0.2715,-1.96E-01
0.27175,-1.61E-01
0.272,-9.19E-02
0.27225,1.48E-02
0.2725,1.64E-01
0.27275,3.51E-01
0.273,5.58E-01
0.27325,7.62E-01
0.2735,9.41E-01
0.27375,1.07E+00
0.274,1.12E+00
0.27425,1.07E+00
0.2745,9.38E-01
0.27475,7.53E-01
0.275,5.36E-01
0.27525,3.12E-01
0.2755,1.07E-01
0.27575,-5.79E-02
0.276,-1.78E-01
0.27625,-2.53E-01
0.2765,-2.86E-01
0.27675,-2.83E-01
0.277,-2.54E-01
0.27725,-2.12E-01
0.2775,-1.65E-01
0.27775,-1.20E-01
0.278,-8.22E-02
0.27825,-5.36E-02
0.2785,-3.45E-02
0.27875,-2.29E-02
0.279,-1.54E-02
0.27925,-9.98E-03
0.2795,-6.01E-03
0.27975,-2.73E-03
0.28,4.54E-04
0.28025,3.94E-03
0.2805,7.98E-03
0.28075,1.27E-02
0.281,1.79E-02
0.28125,2.37E-02
0.2815,3.01E-02
0.28175,3.74E-02
0.282,4.54E-02
0.28225,5.43E-02
0.2825,6.40E-02
0.28275,7.47E-02
0.283,8.63E-02
0.28325,9.88E-02
0.2835,1.12E-01
0.28375,1.27E-01
0.284,1.42E-01
0.28425,1.58E-01
0.2845,1.75E-01
0.28475,1.93E-01
0.285,2.11E-01
0.28525,2.30E-01
0.2855,2.49E-01
0.28575,2.68E-01
0.286,2.86E-01
0.28625,3.05E-01
0.2865,3.22E-01
0.28675,3.39E-01
0.287,3.55E-01
0.28725,3.71E-01
0.2875,3.84E-01
0.28775,3.97E-01
0.288,4.08E-01
0.28825,4.18E-01
0.2885,4.25E-01
0.28875,4.31E-01
0.289,4.35E-01
0.28925,4.37E-01
0.2895,4.37E-01
0.28975,4.34E-01
0.29,4.29E-01
0.29025,4.21E-01
0.2905,4.12E-01
0.29075,4.01E-01
0.291,3.88E-01
0.29125,3.74E-01
0.2915,3.59E-01
0.29175,3.42E-01
0.292,3.25E-01
0.29225,3.07E-01
0.2925,2.89E-01
0.29275,2.70E-01
0.293,2.51E-01
0.29325,2.32E-01
0.2935,2.14E-01
0.29375,1.95E-01
0.294,1.77E-01
0.29425,1.59E-01
0.2945,1.42E-01
0.29475,1.26E-01
0.295,1.11E-01
0.29525,9.65E-02
0.2955,8.32E-02
0.29575,7.10E-02
0.296,5.99E-02
0.29625,4.98E-02
0.2965,4.07E-02
0.29675,3.26E-02
0.297,2.53E-02
0.29725,1.88E-02
0.2975,1.32E-02
0.29775,8.24E-03
0.298,3.98E-03
0.29825,3.56E-04
0.2985,-2.68E-03
0.29875,-5.19E-03
0.299,-7.20E-03
0.29925,-8.77E-03
0.2995,-9.94E-03
0.29975,-1.08E-02
0.3,-1.13E-02
0.30025,-1.15E-02
0.3005,-1.15E-02
0.30075,-1.14E-02
0.301,-1.10E-02
0.30125,-1.06E-02
0.3015,-1.01E-02
0.30175,-9.59E-03
0.302,-8.98E-03
0.30225,-8.33E-03
0.3025,-7.65E-03
0.30275,-6.94E-03
0.303,-6.21E-03
0.30325,-5.47E-03
0.3035,-4.74E-03
0.30375,-4.01E-03
0.304,-3.30E-03
0.30425,-2.60E-03
0.3045,-1.93E-03
0.30475,-1.28E-03
0.305,-6.44E-04
0.30525,-3.06E-05
0.3055,5.64E-04
0.30575,1.14E-03
0.306,1.71E-03
0.30625,2.26E-03
0.3065,2.81E-03
0.30675,3.36E-03
0.307,3.91E-03
0.30725,4.47E-03
0.3075,5.08E-03
0.30775,5.73E-03
0.308,6.41E-03
0.30825,7.13E-03
0.3085,7.89E-03
0.30875,8.73E-03
0.309,9.68E-03
0.30925,1.08E-02
0.3095,1.21E-02
0.30975,1.37E-02
0.31,1.56E-02
0.31025,1.80E-02
0.3105,2.09E-02
0.31075,2.45E-02
0.311,2.89E-02
0.31125,3.41E-02
0.3115,4.04E-02
0.31175,4.79E-02
0.312,5.65E-02
0.31225,6.66E-02
0.3125,7.82E-02
0.31275,9.13E-02
0.313,1.06E-01
0.31325,1.22E-01
0.3135,1.39E-01
0.31375,1.57E-01
0.314,1.76E-01
0.31425,1.96E-01
0.3145,2.15E-01
0.31475,2.34E-01
0.315,2.52E-01
0.31525,2.68E-01
0.3155,2.82E-01
0.31575,2.94E-01
0.316,3.03E-01
0.31625,3.08E-01
0.3165,3.11E-01
0.31675,3.10E-01
0.317,3.05E-01
0.31725,2.98E-01
0.3175,2.87E-01
0.31775,2.74E-01
0.318,2.58E-01
0.31825,2.41E-01
0.3185,2.22E-01
0.31875,2.03E-01
0.319,1.85E-01
0.31925,1.66E-01
0.3195,1.48E-01
0.31975,1.31E-01
0.32,1.16E-01
0.32025,1.02E-01
0.3205,8.95E-02
0.32075,7.87E-02
0.321,6.94E-02
0.32125,6.15E-02
0.3215,5.49E-02
0.32175,4.93E-02
0.322,4.45E-02
0.32225,4.00E-02
0.3225,3.48E-02
0.32275,2.71E-02
0.323,1.58E-02
0.32325,-5.24E-05
0.3235,-2.10E-02
0.32375,-4.74E-02
0.324,-7.76E-02
0.32425,-1.05E-01
0.3245,-1.23E-01
0.32475,-1.24E-01
0.325,-1.01E-01
0.32525,-4.50E-02
0.3255,4.97E-02
0.32575,1.86E-01
0.326,3.61E-01
0.32625,5.62E-01
0.3265,7.71E-01
0.32675,9.64E-01
0.327,1.11E+00
0.32725,1.17E+00
0.3275,1.14E+00
0.32775,1.03E+00
0.328,8.63E-01
0.32825,6.50E-01
0.3285,4.20E-01
0.32875,2.04E-01
0.329,2.46E-02
0.32925,-1.13E-01
0.3295,-2.07E-01
0.32975,-2.58E-01
0.33,-2.71E-01
0.33025,-2.53E-01
0.3305,-2.15E-01
0.33075,-1.69E-01
0.331,-1.21E-01
0.33125,-7.83E-02
0.3315,-4.33E-02
0.33175,-1.77E-02
0.332,-7.01E-04
0.33225,1.05E-02
0.3325,1.83E-02
0.33275,2.40E-02
0.333,2.83E-02
0.33325,3.21E-02
0.3335,3.60E-02
0.33375,4.02E-02
0.334,4.50E-02
0.33425,5.03E-02
0.3345,5.61E-02
0.33475,6.24E-02
0.335,6.94E-02
0.33525,7.71E-02
0.3355,8.55E-02
0.33575,9.47E-02
0.336,1.05E-01
0.33625,1.16E-01
0.3365,1.27E-01
0.33675,1.40E-01
0.337,1.53E-01
0.33725,1.67E-01
0.3375,1.82E-01
0.33775,1.98E-01
0.338,2.15E-01
0.33825,2.32E-01
0.3385,2.50E-01
0.33875,2.68E-01
0.339,2.87E-01
0.33925,3.05E-01
0.3395,3.23E-01
0.33975,3.41E-01
0.34,3.59E-01
0.34025,3.76E-01
0.3405,3.93E-01
0.34075,4.09E-01
0.341,4.23E-01
0.34125,4.37E-01
0.3415,4.49E-01
0.34175,4.60E-01
0.342,4.69E-01
0.34225,4.76E-01
0.3425,4.81E-01
0.34275,4.84E-01
0.343,4.85E-01
0.34325,4.84E-01
0.3435,4.80E-01
0.34375,4.75E-01
0.344,4.68E-01
0.34425,4.59E-01
0.3445,4.49E-01
0.34475,4.36E-01
0.345,4.23E-01
0.34525,4.08E-01
0.3455,3.92E-01
0.34575,3.74E-01
0.346,3.56E-01
0.34625,3.38E-01
0.3465,3.18E-01
0.34675,2.99E-01
0.347,2.79E-01
0.34725,2.60E-01
0.3475,2.40E-01
0.34775,2.22E-01
0.348,2.04E-01
0.34825,1.86E-01
0.3485,1.70E-01
0.34875,1.54E-01
0.349,1.39E-01
0.34925,1.25E-01
0.3495,1.12E-01
0.34975,1.00E-01
0.35,8.88E-02
0.35025,7.85E-02
0.3505,6.92E-02
0.35075,6.07E-02
0.351,5.32E-02
0.35125,4.65E-02
0.3515,4.06E-02
0.35175,3.55E-02
0.352,3.11E-02
0.35225,2.72E-02
0.3525,2.39E-02
0.35275,2.10E-02
0.353,1.86E-02
0.35325,1.65E-02
0.3535,1.48E-02
0.35375,1.34E-02
0.354,1.23E-02
0.35425,1.14E-02
0.3545,1.08E-02
0.35475,1.03E-02
0.355,9.92E-03
0.35525,9.69E-03
0.3555,9.57E-03
0.35575,9.54E-03
0.356,9.57E-03
0.35625,9.65E-03
0.3565,9.78E-03
0.35675,9.94E-03
0.357,1.01E-02
0.35725,1.04E-02
0.3575,1.06E-02
0.35775,1.09E-02
0.358,1.12E-02
0.35825,1.16E-02
0.3585,1.20E-02
0.35875,1.23E-02
0.359,1.27E-02
0.35925,1.32E-02
0.3595,1.36E-02
0.35975,1.40E-02
0.36,1.44E-02
0.36025,1.49E-02
0.3605,1.54E-02
0.36075,1.59E-02
0.361,1.64E-02
0.36125,1.69E-02
0.3615,1.76E-02
0.36175,1.82E-02
0.362,1.89E-02
0.36225,1.97E-02
0.3625,2.06E-02
0.36275,2.16E-02
0.363,2.27E-02
0.36325,2.39E-02
0.3635,2.52E-02
0.36375,2.67E-02
0.364,2.84E-02
0.36425,3.04E-02
0.3645,3.29E-02
0.36475,3.59E-02
0.365,3.95E-02
0.36525,4.39E-02
0.3655,4.91E-02
0.36575,5.52E-02
0.366,6.24E-02
0.36625,7.06E-02
0.3665,8.00E-02
0.36675,9.08E-02
0.367,1.03E-01
0.36725,1.17E-01
0.3675,1.32E-01
0.36775,1.49E-01
0.368,1.67E-01
0.36825,1.85E-01
0.3685,2.04E-01
0.36875,2.23E-01
0.369,2.42E-01
0.36925,2.59E-01
0.3695,2.76E-01
0.36975,2.91E-01
0.37,3.04E-01
0.37025,3.15E-01
0.3705,3.23E-01
0.37075,3.28E-01
0.371,3.30E-01
0.37125,3.29E-01
0.3715,3.24E-01
0.37175,3.15E-01
0.372,3.03E-01
0.37225,2.89E-01
0.3725,2.73E-01
0.37275,2.56E-01
0.373,2.38E-01
0.37325,2.20E-01
0.3735,2.01E-01
0.37375,1.82E-01
0.374,1.64E-01
0.37425,1.47E-01
0.3745,1.30E-01
0.37475,1.15E-01
0.375,1.01E-01
0.37525,8.86E-02
0.3755,7.79E-02
0.37575,6.86E-02
0.376,6.06E-02
0.37625,5.39E-02
0.3765,4.82E-02
0.37675,4.31E-02
0.377,3.78E-02
0.37725,3.13E-02
0.3775,2.26E-02
0.37775,1.03E-02
0.378,-7.14E-03
0.37825,-3.02E-02
0.3785,-5.79E-02
0.37875,-8.77E-02
0.379,-1.15E-01
0.37925,-1.34E-01
0.3795,-1.36E-01
0.37975,-1.14E-01
0.38,-5.93E-02
0.38025,3.48E-02
0.3805,1.70E-01
0.38075,3.41E-01
0.381,5.40E-01
0.38125,7.52E-01
0.3815,9.52E-01
0.38175,1.10E+00
0.382,1.18E+00
0.38225,1.18E+00
0.3825,1.09E+00
0.38275,9.27E-01
0.383,7.19E-01
0.38325,4.92E-01
0.3835,2.71E-01
0.38375,7.61E-02
0.384,-8.10E-02
0.38425,-1.94E-01
0.3845,-2.63E-01
0.38475,-2.89E-01
0.385,-2.83E-01
0.38525,-2.56E-01
0.3855,-2.17E-01
0.38575,-1.73E-01
0.386,-1.30E-01
0.38625,-9.27E-02
0.3865,-6.26E-02
0.38675,-4.08E-02
0.387,-2.62E-02
0.38725,-1.54E-02
0.3875,-7.11E-03
0.38775,-7.08E-04
0.388,4.28E-03
0.38825,8.29E-03
0.3885,1.17E-02
0.38875,1.49E-02
0.389,1.82E-02
0.38925,2.19E-02
0.3895,2.61E-02
0.38975,3.11E-02
0.39,3.70E-02
0.39025,4.39E-02
0.3905,5.18E-02
0.39075,6.08E-02
0.391,7.08E-02
0.39125,8.17E-02
0.3915,9.35E-02
0.39175,1.06E-01
0.392,1.19E-01
0.39225,1.33E-01
0.3925,1.48E-01
0.39275,1.63E-01
0.393,1.80E-01
0.39325,1.97E-01
0.3935,2.14E-01
0.39375,2.32E-01
0.394,2.50E-01
0.39425,2.69E-01
0.3945,2.87E-01
0.39475,3.06E-01
0.395,3.24E-01
0.39525,3.42E-01
0.3955,3.59E-01
0.39575,3.75E-01
0.396,3.91E-01
0.39625,4.05E-01
0.3965,4.18E-01
0.39675,4.30E-01
0.397,4.40E-01
0.39725,4.48E-01
0.3975,4.54E-01
0.39775,4.59E-01
0.398,4.61E-01
0.39825,4.62E-01
0.3985,4.60E-01
0.39875,4.57E-01
0.399,4.51E-01
0.39925,4.44E-01
0.3995,4.34E-01
0.39975,4.23E-01
0.4,4.11E-01
0.40025,3.97E-01
0.4005,3.81E-01
0.40075,3.64E-01
0.401,3.47E-01
0.40125,3.28E-01
0.4015,3.10E-01
0.40175,2.90E-01
0.402,2.71E-01
0.40225,2.51E-01
0.4025,2.32E-01
0.40275,2.13E-01
0.403,1.94E-01
0.40325,1.76E-01
0.4035,1.58E-01
0.40375,1.41E-01
0.404,1.25E-01
0.40425,1.10E-01
0.4045,9.56E-02
0.40475,8.21E-02
0.405,6.96E-02
0.40525,5.81E-02
0.4055,4.74E-02
0.40575,3.77E-02
0.406,2.88E-02
0.40625,2.07E-02
0.4065,1.34E-02
0.40675,6.82E-03
0.407,9.74E-04
0.40725,-4.23E-03
0.4075,-8.87E-03
0.40775,-1.30E-02
0.408,-1.66E-02
0.40825,-1.98E-02
0.4085,-2.26E-02
0.40875,-2.51E-02
0.409,-2.72E-02
0.40925,-2.91E-02
0.4095,-3.07E-02
0.40975,-3.22E-02
0.41,-3.34E-02
0.41025,-3.45E-02
0.4105,-3.55E-02
0.41075,-3.63E-02
0.411,-3.70E-02
0.41125,-3.77E-02
0.4115,-3.83E-02
0.41175,-3.88E-02
0.412,-3.93E-02
0.41225,-3.97E-02
0.4125,-4.01E-02
0.41275,-4.04E-02
0.413,-4.07E-02
0.41325,-4.10E-02
0.4135,-4.12E-02
0.41375,-4.14E-02
0.414,-4.16E-02
0.41425,-4.18E-02
0.4145,-4.19E-02
0.41475,-4.21E-02
0.415,-4.22E-02
0.41525,-4.23E-02
0.4155,-4.24E-02
0.41575,-4.25E-02
0.416,-4.26E-02
0.41625,-4.26E-02
0.4165,-4.26E-02
0.41675,-4.26E-02
0.417,-4.26E-02
0.41725,-4.25E-02
0.4175,-4.23E-02
0.41775,-4.21E-02
0.418,-4.18E-02
0.41825,-4.15E-02
0.4185,-4.11E-02
0.41875,-4.05E-02
0.419,-3.99E-02
0.41925,-3.91E-02
0.4195,-3.83E-02
0.41975,-3.72E-02
0.42,-3.58E-02
0.42025,-3.39E-02
0.4205,-3.14E-02
0.42075,-2.83E-02
0.421,-2.44E-02
0.42125,-1.96E-02
0.4215,-1.38E-02
0.42175,-7.07E-03
0.422,8.01E-04
0.42225,9.84E-03
0.4225,2.01E-02
0.42275,3.17E-02
0.423,4.45E-02
0.42325,5.88E-02
0.4235,7.45E-02
0.42375,9.19E-02
0.424,1.11E-01
0.42425,1.30E-01
0.4245,1.49E-01
0.42475,1.68E-01
0.425,1.86E-01
0.42525,2.03E-01
0.4255,2.18E-01
0.42575,2.32E-01
0.426,2.43E-01
0.42625,2.51E-01
0.4265,2.57E-01
0.42675,2.59E-01
0.427,2.59E-01
0.42725,2.56E-01
0.4275,2.50E-01
0.42775,2.41E-01
0.428,2.29E-01
0.42825,2.14E-01
0.4285,1.97E-01
0.42875,1.79E-01
0.429,1.60E-01
0.42925,1.41E-01
0.4295,1.21E-01
0.42975,1.02E-01
0.43,8.41E-02
0.43025,6.67E-02
0.4305,5.05E-02
0.43075,3.57E-02
0.431,2.22E-02
0.43125,1.02E-02
0.4315,-3.22E-04
0.43175,-9.45E-03
0.432,-1.72E-02
0.43225,-2.34E-02
0.4325,-2.89E-02
0.43275,-3.42E-02
0.433,-4.03E-02
0.43325,-4.77E-02
0.4335,-5.74E-02
0.43375,-7.00E-02
0.434,-8.63E-02
0.43425,-1.07E-01
0.4345,-1.33E-01
0.43475,-1.64E-01
0.435,-1.94E-01
0.43525,-2.15E-01
0.4355,-2.21E-01
0.43575,-2.05E-01
0.436,-1.60E-01
0.43625,-8.20E-02
0.4365,3.48E-02
0.43675,1.94E-01
0.437,3.85E-01
0.43725,5.91E-01
0.4375,7.92E-01
0.43775,9.67E-01
0.438,1.09E+00
0.43825,1.14E+00
0.4385,1.09E+00
0.43875,9.60E-01
0.439,7.77E-01
0.43925,5.63E-01
0.4395,3.39E-01
0.43975,1.27E-01
0.44,-5.00E-02
0.44025,-1.83E-01
0.4405,-2.72E-01
0.44075,-3.20E-01
0.441,-3.32E-01
0.44125,-3.14E-01
0.4415,-2.76E-01
0.44175,-2.31E-01
0.442,-1.85E-01
0.44225,-1.44E-01
0.4425,-1.11E-01
0.44275,-8.61E-02
0.443,-6.98E-02
0.44325,-6.03E-02
0.4435,-5.44E-02
0.44375,-5.00E-02
0.444,-4.67E-02
0.44425,-4.40E-02
0.4445,-4.13E-02
0.44475,-3.83E-02
0.445,-3.48E-02
0.44525,-3.07E-02
0.4455,-2.59E-02
0.44575,-2.06E-02
0.446,-1.46E-02
0.44625,-7.92E-03
0.4465,-4.12E-04
0.44675,7.92E-03
0.447,1.71E-02
0.44725,2.72E-02
0.4475,3.82E-02
0.44775,5.01E-02
0.448,6.28E-02
0.44825,7.65E-02
0.4485,9.10E-02
0.44875,1.06E-01
0.449,1.22E-01
0.44925,1.39E-01
0.4495,1.57E-01
0.44975,1.75E-01
0.45,1.93E-01
0.45025,2.12E-01
0.4505,2.30E-01
0.45075,2.49E-01
0.451,2.67E-01
0.45125,2.84E-01
0.4515,3.01E-01
0.45175,3.16E-01
0.452,3.31E-01
0.45225,3.45E-01
0.4525,3.57E-01
0.45275,3.67E-01
0.453,3.77E-01
0.45325,3.84E-01
0.4535,3.90E-01
0.45375,3.93E-01
0.454,3.95E-01
0.45425,3.95E-01
0.4545,3.92E-01
0.45475,3.88E-01
0.455,3.81E-01
0.45525,3.72E-01
0.4555,3.61E-01
0.45575,3.48E-01
0.456,3.35E-01
0.45625,3.19E-01
0.4565,3.03E-01
0.45675,2.86E-01
0.457,2.68E-01
0.45725,2.50E-01
0.4575,2.31E-01
0.45775,2.11E-01
0.458,1.92E-01
0.45825,1.73E-01
0.4585,1.53E-01
0.45875,1.34E-01
0.459,1.16E-01
0.45925,9.76E-02
0.4595,8.00E-02
0.45975,6.32E-02
0.46,4.73E-02
0.46025,3.22E-02
0.4605,1.82E-02
0.46075,5.21E-03
0.461,-6.69E-03
0.46125,-1.76E-02
0.4615,-2.76E-02
0.46175,-3.66E-02
0.462,-4.48E-02
0.46225,-5.23E-02
0.4625,-5.89E-02
0.46275,-6.49E-02
0.463,-7.01E-02
0.46325,-7.48E-02
0.4635,-7.89E-02
0.46375,-8.24E-02
0.464,-8.55E-02
0.46425,-8.81E-02
0.4645,-9.03E-02
0.46475,-9.21E-02
0.465,-9.36E-02
0.46525,-9.49E-02
0.4655,-9.58E-02
0.46575,-9.66E-02
0.466,-9.72E-02
0.46625,-9.77E-02
0.4665,-9.81E-02
0.46675,-9.84E-02
0.467,-9.86E-02
0.46725,-9.88E-02
0.4675,-9.89E-02
0.46775,-9.90E-02
0.468,-9.90E-02
0.46825,-9.90E-02
0.4685,-9.90E-02
0.46875,-9.89E-02
0.469,-9.88E-02
0.46925,-9.87E-02
0.4695,-9.85E-02
0.46975,-9.83E-02
0.47,-9.82E-02
0.47025,-9.80E-02
0.4705,-9.77E-02
0.47075,-9.75E-02
0.471,-9.73E-02
0.47125,-9.70E-02
0.4715,-9.67E-02
0.47175,-9.64E-02
0.472,-9.61E-02
0.47225,-9.58E-02
0.4725,-9.54E-02
0.47275,-9.50E-02
0.473,-9.46E-02
0.47325,-9.41E-02
0.4735,-9.35E-02
0.47375,-9.29E-02
0.474,-9.23E-02
0.47425,-9.16E-02
0.4745,-9.08E-02
0.47475,-8.98E-02
0.475,-8.87E-02
0.47525,-8.73E-02
0.4755,-8.57E-02
0.47575,-8.37E-02
0.476,-8.13E-02
0.47625,-7.83E-02
0.4765,-7.48E-02
0.47675,-7.05E-02
0.477,-6.53E-02
0.47725,-5.92E-02
0.4775,-5.19E-02
0.47775,-4.34E-02
0.478,-3.35E-02
0.47825,-2.22E-02
0.4785,-9.38E-03
0.47875,4.74E-03
0.479,2.01E-02
0.47925,3.66E-02
0.4795,5.39E-02
0.47975,7.20E-02
0.48,9.04E-02
0.48025,1.09E-01
0.4805,1.27E-01
0.48075,1.44E-01
0.481,1.61E-01
0.48125,1.75E-01
0.4815,1.87E-01
0.48175,1.97E-01
0.482,2.03E-01
0.48225,2.06E-01
0.4825,2.06E-01
0.48275,2.03E-01
0.483,1.97E-01
0.48325,1.87E-01
0.4835,1.75E-01
0.48375,1.61E-01
0.484,1.44E-01
0.48425,1.26E-01
0.4845,1.07E-01
0.48475,8.73E-02
0.485,6.77E-02
0.48525,4.85E-02
0.4855,3.00E-02
0.48575,1.24E-02
0.486,-3.86E-03
0.48625,-1.88E-02
0.4865,-3.22E-02
0.48675,-4.41E-02
0.487,-5.45E-02
0.48725,-6.35E-02
0.4875,-7.11E-02
0.48775,-7.76E-02
0.488,-8.29E-02
0.48825,-8.76E-02
0.4885,-9.31E-02
0.48875,-1.01E-01
0.489,-1.11E-01
0.48925,-1.26E-01
0.4895,-1.44E-01
0.48975,-1.67E-01
0.49,-1.95E-01
0.49025,-2.27E-01
0.4905,-2.56E-01
0.49075,-2.73E-01
0.491,-2.69E-01
0.49125,-2.39E-01
0.4915,-1.78E-01
0.49175,-8.05E-02
0.492,5.36E-02
0.49225,2.25E-01
0.4925,4.37E-01
0.49275,6.58E-01
0.493,8.52E-01
0.49325,9.93E-01
0.4935,1.06E+00
0.49375,1.05E+00
0.494,9.59E-01
0.49425,7.95E-01
0.4945,5.84E-01
0.49475,3.59E-01
0.495,1.44E-01
0.49525,-4.33E-02
0.4955,-1.91E-01
0.49575,-2.92E-01
0.496,-3.47E-01
0.49625,-3.60E-01
0.4965,-3.42E-01
0.49675,-3.06E-01
0.497,-2.61E-01
0.49725,-2.13E-01
0.4975,-1.70E-01
0.49775,-1.35E-01
0.498,-1.09E-01
0.49825,-9.29E-02
0.4985,-8.35E-02
0.49875,-7.67E-02
0.499,-7.16E-02
0.49925,-6.77E-02
0.4995,-6.44E-02
0.49975,-6.10E-02
0.5,-5.74E-02
0.50025,-5.32E-02
0.5005,-4.83E-02
0.50075,-4.29E-02
0.501,-3.69E-02
0.50125,-3.02E-02
0.5015,-2.28E-02
0.50175,-1.46E-02
0.502,-5.52E-03
0.50225,4.40E-03
0.5025,1.52E-02
0.50275,2.70E-02
0.503,3.96E-02
0.50325,5.32E-02
0.5035,6.76E-02
0.50375,8.29E-02
0.504,9.89E-02
0.50425,1.16E-01
0.5045,1.33E-01
0.50475,1.52E-01
0.505,1.70E-01
0.50525,1.89E-01
0.5055,2.09E-01
0.50575,2.28E-01
0.506,2.46E-01
0.50625,2.64E-01
0.5065,2.82E-01
0.50675,2.98E-01
0.507,3.14E-01
0.50725,3.28E-01
0.5075,3.41E-01
0.50775,3.52E-01
0.508,3.62E-01
0.50825,3.70E-01
0.5085,3.77E-01
0.50875,3.81E-01
0.509,3.83E-01
0.50925,3.84E-01
0.5095,3.82E-01
0.50975,3.77E-01
0.51,3.71E-01
0.51025,3.62E-01
0.5105,3.51E-01
0.51075,3.39E-01
0.511,3.25E-01
0.51125,3.10E-01
0.5115,2.94E-01
0.51175,2.77E-01
0.512,2.60E-01
0.51225,2.42E-01
0.5125,2.23E-01
0.51275,2.04E-01
0.513,1.85E-01
0.51325,1.66E-01
0.5135,1.48E-01
0.51375,1.29E-01
0.514,1.12E-01
0.51425,9.43E-02
0.5145,7.76E-02
0.51475,6.17E-02
0.515,4.66E-02
0.51525,3.24E-02
0.5155,1.92E-02
0.51575,7.10E-03
0.516,-3.93E-03
0.51625,-1.39E-02
0.5165,-2.30E-02
0.51675,-3.11E-02
0.517,-3.83E-02
0.51725,-4.48E-02
0.5175,-5.05E-02
0.51775,-5.55E-02
0.518,-5.99E-02
0.51825,-6.36E-02
0.5185,-6.69E-02
0.51875,-6.96E-02
0.519,-7.18E-02
0.51925,-7.36E-02
0.5195,-7.51E-02
0.51975,-7.62E-02
0.52,-7.70E-02
0.52025,-7.75E-02
0.5205,-7.78E-02
0.52075,-7.79E-02
0.521,-7.78E-02
0.52125,-7.76E-02
0.5215,-7.73E-02
0.52175,-7.68E-02
0.522,-7.63E-02
0.52225,-7.57E-02
0.5225,-7.50E-02
0.52275,-7.43E-02
0.523,-7.35E-02
0.52325,-7.26E-02
0.5235,-7.18E-02
0.52375,-7.08E-02
0.524,-6.99E-02
0.52425,-6.89E-02
0.5245,-6.79E-02
0.52475,-6.69E-02
0.525,-6.58E-02
0.52525,-6.48E-02
0.5255,-6.37E-02
0.52575,-6.27E-02
0.526,-6.16E-02
0.52625,-6.06E-02
0.5265,-5.95E-02
0.52675,-5.84E-02
0.527,-5.74E-02
0.52725,-5.63E-02
0.5275,-5.52E-02
0.52775,-5.41E-02
0.528,-5.31E-02
0.52825,-5.19E-02
0.5285,-5.08E-02
0.52875,-4.97E-02
0.529,-4.86E-02
0.52925,-4.76E-02
0.5295,-4.64E-02
0.52975,-4.50E-02
0.53,-4.32E-02
0.53025,-4.10E-02
0.5305,-3.83E-02
0.53075,-3.49E-02
0.531,-3.07E-02
0.53125,-2.57E-02
0.5315,-1.98E-02
0.53175,-1.29E-02
0.532,-4.96E-03
0.53225,4.15E-03
0.5325,1.45E-02
0.53275,2.60E-02
0.533,3.90E-02
0.53325,5.32E-02
0.5335,6.90E-02
0.53375,8.61E-02
0.534,1.04E-01
0.53425,1.23E-01
0.5345,1.42E-01
0.53475,1.61E-01
0.535,1.79E-01
0.53525,1.96E-01
0.5355,2.12E-01
0.53575,2.25E-01
0.536,2.36E-01
0.53625,2.45E-01
0.5365,2.50E-01
0.53675,2.52E-01
0.537,2.51E-01
0.53725,2.46E-01
0.5375,2.38E-01
0.53775,2.27E-01
0.538,2.14E-01
0.53825,2.00E-01
0.5385,1.83E-01
0.53875,1.66E-01
0.539,1.48E-01
0.53925,1.29E-01
0.5395,1.11E-01
0.53975,9.37E-02
0.54,7.72E-02
0.54025,6.18E-02
0.5405,4.77E-02
0.54075,3.51E-02
0.541,2.42E-02
0.54125,1.52E-02
0.5415,7.91E-03
0.54175,2.09E-03
0.542,-2.64E-03
0.54225,-6.78E-03
0.5425,-1.10E-02
0.54275,-1.61E-02
0.543,-2.31E-02
0.54325,-3.29E-02
0.5435,-4.70E-02
0.54375,-6.65E-02
0.544,-9.15E-02
0.54425,-1.20E-01
0.5445,-1.49E-01
0.54475,-1.73E-01
0.545,-1.84E-01
0.54525,-1.74E-01
0.5455,-1.36E-01
0.54575,-6.06E-02
0.546,5.71E-02
0.54625,2.16E-01
0.5465,4.07E-01
0.54675,6.15E-01
0.547,8.20E-01
0.54725,9.93E-01
0.5475,1.10E+00
0.54775,1.13E+00
0.548,1.07E+00
0.54825,9.23E-01
0.5485,7.21E-01
0.54875,4.95E-01
0.549,2.73E-01
0.54925,7.42E-02
0.5495,-8.83E-02
0.54975,-2.06E-01
0.55,-2.79E-01
0.55025,-3.08E-01
0.5505,-3.04E-01
0.55075,-2.75E-01
0.551,-2.32E-01
0.55125,-1.85E-01
0.5515,-1.40E-01
0.55175,-1.03E-01
0.552,-7.41E-02
0.55225,-5.42E-02
0.5525,-4.06E-02
0.55275,-3.13E-02
0.553,-2.51E-02
0.55325,-2.07E-02
0.5535,-1.73E-02
0.55375,-1.40E-02
0.554,-1.04E-02
0.55425,-6.13E-03
0.5545,-1.05E-03
0.55475,4.77E-03
0.555,1.10E-02
0.55525,1.78E-02
0.5555,2.53E-02
0.55575,3.36E-02
0.556,4.27E-02
0.55625,5.26E-02
0.5565,6.34E-02
0.55675,7.51E-02
0.557,8.77E-02
0.55725,1.01E-01
0.5575,1.16E-01
0.55775,1.31E-01
0.558,1.47E-01
0.55825,1.64E-01
0.5585,1.81E-01
0.55875,2.00E-01
0.559,2.18E-01
0.55925,2.38E-01
0.5595,2.57E-01
0.55975,2.76E-01
0.56,2.95E-01
0.56025,3.13E-01
0.5605,3.31E-01
0.56075,3.49E-01
0.561,3.65E-01
0.56125,3.80E-01
0.5615,3.94E-01
0.56175,4.07E-01
0.562,4.19E-01
0.56225,4.28E-01
0.5625,4.36E-01
0.56275,4.42E-01
0.563,4.46E-01
0.56325,4.48E-01
0.5635,4.48E-01
0.56375,4.45E-01
0.564,4.40E-01
0.56425,4.32E-01
0.5645,4.23E-01
0.56475,4.12E-01
0.565,3.99E-01
0.56525,3.85E-01
0.5655,3.70E-01
0.56575,3.54E-01
0.566,3.38E-01
0.56625,3.20E-01
0.5665,3.03E-01
0.56675,2.85E-01
0.567,2.66E-01
0.56725,2.48E-01
0.5675,2.30E-01
0.56775,2.12E-01
0.568,1.95E-01
0.56825,1.78E-01
0.5685,1.61E-01
0.56875,1.46E-01
0.569,1.30E-01
0.56925,1.16E-01
0.5695,1.03E-01
0.56975,9.00E-02
0.57,7.84E-02
0.57025,6.77E-02
0.5705,5.81E-02
0.57075,4.95E-02
0.571,4.19E-02
0.57125,3.51E-02
0.5715,2.92E-02
0.57175,2.40E-02
0.572,1.95E-02
0.57225,1.57E-02
0.5725,1.25E-02
0.57275,9.81E-03
0.573,7.60E-03
0.57325,5.84E-03
0.5735,4.47E-03
0.57375,3.45E-03
0.574,2.74E-03
0.57425,2.31E-03
0.5745,2.12E-03
0.57475,2.14E-03
0.575,2.34E-03
0.57525,2.69E-03
0.5755,3.17E-03
0.57575,3.76E-03
0.576,4.44E-03
0.57625,5.18E-03
0.5765,5.99E-03
0.57675,6.84E-03
0.577,7.72E-03
0.57725,8.63E-03
0.5775,9.57E-03
0.57775,1.05E-02
0.578,1.15E-02
0.57825,1.25E-02
0.5785,1.35E-02
0.57875,1.45E-02
0.579,1.55E-02
0.57925,1.65E-02
0.5795,1.75E-02
0.57975,1.85E-02
0.58,1.94E-02
0.58025,2.03E-02
0.5805,2.12E-02
0.58075,2.20E-02
0.581,2.29E-02
0.58125,2.37E-02
0.5815,2.45E-02
0.58175,2.54E-02
0.582,2.62E-02
0.58225,2.70E-02
0.5825,2.79E-02
0.58275,2.88E-02
0.583,2.98E-02
0.58325,3.09E-02
0.5835,3.20E-02
0.58375,3.33E-02
0.584,3.46E-02
0.58425,3.62E-02
0.5845,3.82E-02
0.58475,4.06E-02
0.585,4.36E-02
0.58525,4.73E-02
0.5855,5.18E-02
0.58575,5.72E-02
0.586,6.36E-02
0.58625,7.11E-02
0.5865,7.97E-02
0.58675,8.96E-02
0.587,1.01E-01
0.58725,1.14E-01
0.5875,1.28E-01
0.58775,1.44E-01
0.588,1.61E-01
0.58825,1.79E-01
0.5885,1.98E-01
0.58875,2.17E-01
0.589,2.36E-01
0.58925,2.54E-01
0.5895,2.71E-01
0.58975,2.87E-01
0.59,3.01E-01
0.59025,3.13E-01
0.5905,3.22E-01
0.59075,3.29E-01
0.591,3.32E-01
0.59125,3.32E-01
0.5915,3.29E-01
0.59175,3.21E-01
0.592,3.11E-01
0.59225,2.98E-01
0.5925,2.82E-01
0.59275,2.66E-01
0.593,2.48E-01
0.59325,2.30E-01
0.5935,2.11E-01
0.59375,1.93E-01
0.594,1.75E-01
0.59425,1.58E-01
0.5945,1.42E-01
0.59475,1.27E-01
0.595,1.13E-01
0.59525,1.01E-01
0.5955,9.00E-02
0.59575,8.08E-02
0.596,7.46E-02
0.59625,7.13E-02
0.5965,6.86E-02
0.59675,6.47E-02
0.597,5.83E-02
0.59725,4.84E-02
0.5975,3.46E-02
0.59775,1.68E-02
0.598,-4.65E-03
0.59825,-2.90E-02
0.5985,-5.50E-02
0.59875,-8.12E-02
0.599,-1.05E-01
0.59925,-1.25E-01
0.5995,-1.32E-01
0.59975,-1.12E-01
0.6,-5.69E-02
0.60025,3.80E-02
0.6005,1.73E-01
0.60075,3.43E-01
0.601,5.40E-01
0.60125,7.50E-01
0.6015,9.51E-01
0.60175,1.11E+00
0.602,1.19E+00
0.60225,1.19E+00
0.6025,1.10E+00
0.60275,9.33E-01
0.603,7.24E-01
0.60325,4.98E-01
0.6035,2.79E-01
0.60375,8.72E-02
0.604,-6.55E-02
0.60425,-1.73E-01
0.6045,-2.36E-01
0.60475,-2.59E-01
0.605,-2.48E-01
0.60525,-2.17E-01
0.6055,-1.74E-01
0.60575,-1.28E-01
0.606,-8.43E-02
0.60625,-4.75E-02
0.6065,-1.92E-02
0.60675,6.67E-04
0.607,1.50E-02
0.60725,2.57E-02
0.6075,3.37E-02
0.60775,3.95E-02
0.608,4.38E-02
0.60825,4.72E-02
0.6085,5.01E-02
0.60875,5.30E-02
0.609,5.62E-02
0.60925,6.00E-02
0.6095,6.47E-02
0.60975,7.03E-02
0.61,7.70E-02
0.61025,8.48E-02
0.6105,9.37E-02
0.61075,1.03E-01
0.611,1.14E-01
0.61125,1.25E-01
0.6115,1.37E-01
0.61175,1.50E-01
0.612,1.63E-01
0.61225,1.78E-01
0.6125,1.93E-01
0.61275,2.09E-01
0.613,2.25E-01
0.61325,2.43E-01
0.6135,2.60E-01
0.61375,2.79E-01
0.614,2.97E-01
0.61425,3.15E-01
0.6145,3.34E-01
0.61475,3.52E-01
0.615,3.70E-01
0.61525,3.87E-01
0.6155,4.04E-01
0.61575,4.20E-01
0.616,4.34E-01
0.61625,4.48E-01
0.6165,4.59E-01
0.61675,4.69E-01
0.617,4.78E-01
0.61725,4.84E-01
0.6175,4.89E-01
0.61775,4.91E-01
0.618,4.92E-01
0.61825,4.90E-01
0.6185,4.86E-01
0.61875,4.81E-01
0.619,4.73E-01
0.61925,4.63E-01
0.6195,4.52E-01
0.61975,4.39E-01
0.62,4.25E-01
0.62025,4.09E-01
0.6205,3.92E-01
0.62075,3.75E-01
0.621,3.56E-01
0.62125,3.37E-01
0.6215,3.18E-01
0.62175,2.98E-01
0.622,2.79E-01
0.62225,2.59E-01
0.6225,2.40E-01
0.62275,2.22E-01
0.623,2.04E-01
0.62325,1.86E-01
0.6235,1.70E-01
0.62375,1.54E-01
0.624,1.39E-01
0.62425,1.25E-01
0.6245,1.12E-01
0.62475,1.00E-01
0.625,8.89E-02
0.62525,7.87E-02
0.6255,6.95E-02
0.62575,6.13E-02
0.626,5.39E-02
0.62625,4.73E-02
0.6265,4.14E-02
0.62675,3.62E-02
0.627,3.16E-02
0.62725,2.76E-02
0.6275,2.42E-02
0.62775,2.11E-02
0.628,1.86E-02
0.62825,1.64E-02
0.6285,1.45E-02
0.62875,1.30E-02
0.629,1.17E-02
0.62925,1.07E-02
0.6295,9.88E-03
0.62975,9.26E-03
0.63,8.80E-03
0.63025,8.49E-03
0.6305,8.29E-03
0.63075,8.19E-03
0.631,8.18E-03
0.63125,8.24E-03
0.6315,8.37E-03
0.63175,8.54E-03
0.632,8.76E-03
0.63225,9.03E-03
0.6325,9.34E-03
0.63275,9.69E-03
0.633,1.01E-02
0.63325,1.05E-02
0.6335,1.10E-02
0.63375,1.15E-02
0.634,1.20E-02
0.63425,1.26E-02
0.6345,1.31E-02
0.63475,1.37E-02
0.635,1.43E-02
0.63525,1.48E-02
0.6355,1.54E-02
0.63575,1.60E-02
0.636,1.66E-02
0.63625,1.71E-02
0.6365,1.77E-02
0.63675,1.84E-02
0.637,1.90E-02
0.63725,1.97E-02
0.6375,2.04E-02
0.63775,2.11E-02
0.638,2.19E-02
0.63825,2.28E-02
0.6385,2.38E-02
0.63875,2.48E-02
0.639,2.60E-02
0.63925,2.75E-02
0.6395,2.93E-02
0.63975,3.15E-02
0.64,3.29E-02
0.64025,
0.6405,
0.64075,
0.641,
0.64125,
0.6415,
0.64175,
0.642,
0.64225,
0.6425,
0.64275,
0.643,
0.64325,
0.6435,
0.64375,
0.644,
0.64425,
0.6445,
0.64475,
0.645,
0.64525,
0.6455,
0.64575,
0.646,
0.64625,
0.6465,
0.64675,
0.647,
0.64725,
0.6475,
0.64775,
0.648,
0.64825,
0.6485,
0.64875,
0.649,
0.64925,
0.6495,
0.64975,
0.65,
0.65025,
0.6505,
0.65075,
0.651,
0.65125,
0.6515,
0.65175,
0.652,
0.65225,
0.6525,
0.65275,
0.653,
0.65325,
0.6535,
0.65375,
0.654,
0.65425,
0.6545,
0.65475,
0.655,
0.65525,
0.6555,
0.65575,
0.656,
0.65625,
0.6565,
0.65675,
0.657,
0.65725,
0.6575,
0.65775,
0.658,
0.65825,
0.6585,
0.65875,
0.659,
0.65925,
0.6595,
0.65975,
0.66,
0.66025,
0.6605,
0.66075,
0.661,
0.66125,
0.6615,
0.66175,
0.662,
0.66225,
0.6625,
0.66275,
0.663,
0.66325,
0.6635,
0.66375,
0.664,
0.66425,
0.6645,
0.66475,
0.665,
0.66525,
0.6655,
0.66575,
0.666,
0.66625,
0.6665,
0.66675,
0.667,
0.66725,
0.6675,
0.66775,
0.668,
0.66825,
0.6685,
0.66875,
0.669,
0.66925,
0.6695,
0.66975,
0.67,
0.67025,
0.6705,
0.67075,
0.671,
0.67125,
0.6715,
0.67175,
0.672,
0.67225,
0.6725,
0.67275,
0.673,
0.67325,
0.6735,
0.67375,
0.674,
0.67425,
0.6745,
0.67475,
0.675,
0.67525,
0.6755,
0.67575,
0.676,
0.67625,
0.6765,
0.67675,
0.677,
0.67725,
0.6775,
0.67775,
0.678,
0.67825,
0.6785,
0.67875,
0.679,
0.67925,
0.6795,
0.67975,
0.68,
0.68025,
0.6805,
0.68075,
0.681,
0.68125,
0.6815,
0.68175,
0.682,
0.68225,
0.6825,
0.68275,
0.683,
0.68325,
0.6835,
0.68375,
0.684,
0.68425,
0.6845,
0.68475,
0.685,
0.68525,
0.6855,
0.68575,
0.686,
0.68625,
0.6865,
0.68675,
0.687,
0.68725,
0.6875,
0.68775,
0.688,
0.68825,
0.6885,
0.68875,
0.689,
0.68925,
0.6895,
0.68975,
0.69,
0.69025,
0.6905,
0.69075,
0.691,
0.69125,
0.6915,
0.69175,
0.692,
0.69225,
0.6925,
0.69275,
0.693,
0.69325,
0.6935,
0.69375,
0.694,
0.69425,
0.6945,
0.69475,
0.695,
0.69525,
0.6955,
0.69575,
0.696,
0.69625,
0.6965,
0.69675,
0.697,
0.69725,
0.6975,
0.69775,
0.698,
0.69825,
0.6985,
0.69875,
0.699,
0.69925,
0.6995,
0.69975,
0.7,
0.70025,
0.7005,
0.70075,
0.701,
0.70125,
0.7015,
0.70175,
0.702,
0.70225,
0.7025,
0.70275,
0.703,
0.70325,
0.7035,
0.70375,
0.704,
0.70425,
0.7045,
0.70475,
0.705,
0.70525,
0.7055,
0.70575,
0.706,
0.70625,
0.7065,
0.70675,
0.707,
0.70725,
0.7075,
0.70775,
0.708,
0.70825,
0.7085,
0.70875,
0.709,
0.70925,
0.7095,
0.70975,
0.71,
0.71025,
0.7105,
0.71075,
0.711,
0.71125,
0.7115,
0.71175,
0.712,
0.71225,
0.7125,
0.71275,
0.713,
0.71325,
0.7135,
0.71375,
0.714,
0.71425,
0.7145,
0.71475,
0.715,
0.71525,
0.7155,
0.71575,
0.716,
0.71625,
0.7165,
0.71675,
0.717,
0.71725,
0.7175,
0.71775,
0.718,
0.71825,
0.7185,
0.71875,
0.719,
0.71925,
0.7195,
0.71975,
0.72,
0.72025,
0.7205,
0.72075,
0.721,
0.72125,
0.7215,
0.72175,
0.722,
0.72225,
0.7225,
0.72275,
0.723,
0.72325,
0.7235,
0.72375,
0.724,
0.72425,
0.7245,
0.72475,
0.725,
0.72525,
0.7255,
0.72575,
0.726,
0.72625,
0.7265,
0.72675,
0.727,
0.72725,
0.7275,
0.72775,
0.728,
0.72825,
0.7285,
0.72875,
0.729,
0.72925,
0.7295,
0.72975,
0.73,
0.73025,
0.7305,
0.73075,
0.731,
0.73125,
0.7315,
0.73175,
0.732,
0.73225,
0.7325,
0.73275,
0.733,
0.73325,
0.7335,
0.73375,
0.734,
0.73425,
0.7345,
0.73475,
0.735,
0.73525,
0.7355,
0.73575,
0.736,
0.73625,
0.7365,
0.73675,
0.737,
0.73725,
0.7375,
0.73775,
0.738,
0.73825,
0.7385,
0.73875,
0.739,
0.73925,
0.7395,
0.73975,
0.74,
0.74025,
0.7405,
0.74075,
0.741,
0.74125,
0.7415,
0.74175,
0.742,
0.74225,
0.7425,
0.74275,
0.743,
0.74325,
0.7435,
0.74375,
0.744,
0.74425,
0.7445,
0.74475,
0.745,
0.74525,
0.7455,
0.74575,
0.746,
0.74625,
0.7465,
0.74675,
0.747,
0.74725,
0.7475,
0.74775,
0.748,
0.74825,
0.7485,
0.74875,
0.749,
0.74925,
0.7495,
0.74975,
0.75,
0.75025,
0.7505,
0.75075,
0.751,
0.75125,
0.7515,
0.75175,
0.752,
0.75225,
0.7525,
0.75275,
0.753,
0.75325,
0.7535,
0.75375,
0.754,
0.75425,
0.7545,
0.75475,
0.755,
0.75525,
0.7555,
0.75575,
0.756,
0.75625,
0.7565,
0.75675,
0.757,
0.75725,
0.7575,
0.75775,
0.758,
0.75825,
0.7585,
0.75875,
0.759,
0.75925,
0.7595,
0.75975,
0.76,
0.76025,
0.7605,
0.76075,
0.761,
0.76125,
0.7615,
0.76175,
0.762,
0.76225,
0.7625,
0.76275,
0.763,
0.76325,
0.7635,
0.76375,
0.764,
0.76425,
0.7645,
0.76475,
0.765,
0.76525,
0.7655,
0.76575,
0.766,
0.76625,
0.7665,
0.76675,
0.767,
0.76725,
0.7675,
0.76775,
0.768,
0.76825,
0.7685,
0.76875,
0.769,
0.76925,
0.7695,
0.76975,
0.77,
0.77025,
0.7705,
0.77075,
0.771,
0.77125,
0.7715,
0.77175,
0.772,
0.77225,
0.7725,
0.77275,
0.773,
0.77325,
0.7735,
0.77375,
0.774,
0.77425,
0.7745,
0.77475,
0.775,
0.77525,
0.7755,
0.77575,
0.776,
0.77625,
0.7765,
0.77675,
0.777,
0.77725,
0.7775,
0.77775,
0.778,
0.77825,
0.7785,
0.77875,
0.779,
0.77925,
0.7795,
0.77975,
0.78,
0.78025,
0.7805,
0.78075,
0.781,
0.78125,
0.7815,
0.78175,
0.782,
0.78225,
0.7825,
0.78275,
0.783,
0.78325,
0.7835,
0.78375,
0.784,
0.78425,
0.7845,
0.78475,
0.785,
0.78525,
0.7855,
0.78575,
0.786,
0.78625,
0.7865,
0.78675,
0.787,
0.78725,
0.7875,
0.78775,
0.788,
0.78825,
0.7885,
0.78875,
0.789,
0.78925,
0.7895,
0.78975,
0.79,
0.79025,
0.7905,
0.79075,
0.791,
0.79125,
0.7915,
0.79175,
0.792,
0.79225,
0.7925,
0.79275,
0.793,
0.79325,
0.7935,
0.79375,
0.794,
0.79425,
0.7945,
0.79475,
0.795,
0.79525,
0.7955,
0.79575,
0.796,
0.79625,
0.7965,
0.79675,
0.797,
0.79725,
0.7975,
0.79775,
0.798,
0.79825,
0.7985,
0.79875,
0.799,
0.79925,
0.7995,
0.79975,
0.8,
0.80025,
0.8005,
0.80075,
0.801,
0.80125,
0.8015,
0.80175,
0.802,
0.80225,
0.8025,
0.80275,
0.803,
0.80325,
0.8035,
0.80375,
0.804,
0.80425,
0.8045,
0.80475,
0.805,
0.80525,
0.8055,
0.80575,
0.806,
0.80625,
0.8065,
0.80675,
0.807,
0.80725,
0.8075,
0.80775,
0.808,
0.80825,
0.8085,
0.80875,
0.809,
0.80925,
0.8095,
0.80975,
0.81,
0.81025,
0.8105,
0.81075,
0.811,
0.81125,
0.8115,
0.81175,
0.812,
0.81225,
0.8125,
0.81275,
0.813,
0.81325,
0.8135,
0.81375,
0.814,
0.81425,
0.8145,
0.81475,
0.815,
0.81525,
0.8155,
0.81575,
0.816,
0.81625,
0.8165,
0.81675,
0.817,
0.81725,
0.8175,
0.81775,
0.818,
0.81825,
0.8185,
0.81875,
0.819,
0.81925,
0.8195,
0.81975,
0.82,
0.82025,
0.8205,
0.82075,
0.821,
0.82125,
0.8215,
0.82175,
0.822,
0.82225,
0.8225,
0.82275,
0.823,
0.82325,
0.8235,
0.82375,
0.824,
0.82425,
0.8245,
0.82475,
0.825,
0.82525,
0.8255,
0.82575,
0.826,
0.82625,
0.8265,
0.82675,
0.827,
0.82725,
0.8275,
0.82775,
0.828,
0.82825,
0.8285,
0.82875,
0.829,
0.82925,
0.8295,
0.82975,
0.83,
0.83025,
0.8305,
0.83075,
0.831,
0.83125,
0.8315,
0.83175,
0.832,
0.83225,
0.8325,
0.83275,
0.833,
0.83325,
0.8335,
0.83375,
0.834,
0.83425,
0.8345,
0.83475,
0.835,
0.83525,
0.8355,
0.83575,
0.836,
0.83625,
0.8365,
0.83675,
0.837,
0.83725,
0.8375,
0.83775,
0.838,
0.83825,
0.8385,
0.83875,
0.839,
0.83925,
0.8395,
0.83975,
0.84,
0.84025,
0.8405,
0.84075,
0.841,
0.84125,
0.8415,
0.84175,
0.842,
0.84225,
0.8425,
0.84275,
0.843,
0.84325,
0.8435,
0.84375,
0.844,
0.84425,
0.8445,
0.84475,
0.845,
0.84525,
0.8455,
0.84575,
0.846,
0.84625,
0.8465,
0.84675,
0.847,
0.84725,
0.8475,
0.84775,
0.848,
0.84825,
0.8485,
0.84875,
0.849,
0.84925,
0.8495,
0.84975,
0.85,
0.85025,
0.8505,
0.85075,
0.851,
0.85125,
0.8515,
0.85175,
0.852,
0.85225,
0.8525,
0.85275,
0.853,
0.85325,
0.8535,
0.85375,
0.854,
0.85425,
0.8545,
0.85475,
0.855,
0.85525,
0.8555,
0.85575,
0.856,
0.85625,
0.8565,
0.85675,
0.857,
0.85725,
0.8575,
0.85775,
0.858,
0.85825,
0.8585,
0.85875,
0.859,
0.85925,
0.8595,
0.85975,
0.86,
0.86025,
0.8605,
0.86075,
0.861,
0.86125,
0.8615,
0.86175,
0.862,
0.86225,
0.8625,
0.86275,
0.863,
0.86325,
0.8635,
0.86375,
0.864,
0.86425,
0.8645,
0.86475,
0.865,
0.86525,
0.8655,
0.86575,
0.866,
0.86625,
0.8665,
0.86675,
0.867,
0.86725,
0.8675,
0.86775,
0.868,
0.86825,
0.8685,
0.86875,
0.869,
0.86925,
0.8695,
0.86975,
0.87,
0.87025,
0.8705,
0.87075,
0.871,
0.87125,
0.8715,
0.87175,
0.872,
0.87225,
0.8725,
0.87275,
0.873,
0.87325,
0.8735,
0.87375,
0.874,
0.87425,
0.8745,
0.87475,
0.875,
0.87525,
0.8755,
0.87575,
0.876,
0.87625,
0.8765,
0.87675,
0.877,
0.87725,
0.8775,
0.87775,
0.878,
0.87825,
0.8785,
0.87875,
0.879,
0.87925,
0.8795,
0.87975,
0.88,
0.88025,
0.8805,
0.88075,
0.881,
0.88125,
0.8815,
0.88175,
0.882,
0.88225,
0.8825,
0.88275,
0.883,
0.88325,
0.8835,
0.88375,
0.884,
0.88425,
0.8845,
0.88475,
0.885,
0.88525,
0.8855,
0.88575,
0.886,
0.88625,
0.8865,
0.88675,
0.887,
0.88725,
0.8875,
0.88775,
0.888,
0.88825,
0.8885,
0.88875,
0.889,
0.88925,
0.8895,
0.88975,
0.89,
0.89025,
0.8905,
0.89075,
0.891,
0.89125,
0.8915,
0.89175,
0.892,
0.89225,
0.8925,
0.89275,
0.893,
0.89325,
0.8935,
0.89375,
0.894,
0.89425,
0.8945,
0.89475,
0.895,
0.89525,
0.8955,
0.89575,
0.896,
0.89625,
0.8965,
0.89675,
0.897,
0.89725,
0.8975,
0.89775,
0.898,
0.89825,
0.8985,
0.89875,
0.899,
0.89925,
0.8995,
0.89975,
0.9,
0.90025,
0.9005,
0.90075,
0.901,
0.90125,
0.9015,
0.90175,
0.902,
0.90225,
0.9025,
0.90275,
0.903,
0.90325,
0.9035,
0.90375,
0.904,
0.90425,
0.9045,
0.90475,
0.905,
0.90525,
0.9055,
0.90575,
0.906,
0.90625,
0.9065,
0.90675,
0.907,
0.90725,
0.9075,
0.90775,
0.908,
0.90825,
0.9085,
0.90875,
0.909,
0.90925,
0.9095,
0.90975,
0.91,
0.91025,
0.9105,
0.91075,
0.911,
0.91125,
0.9115,
0.91175,
0.912,
0.91225,
0.9125,
0.91275,
0.913,
0.91325,
0.9135,
0.91375,
0.914,
0.91425,
0.9145,
0.91475,
0.915,
0.91525,
0.9155,
0.91575,
0.916,
0.91625,
0.9165,
0.91675,
0.917,
0.91725,
0.9175,
0.91775,
0.918,
0.91825,
0.9185,
0.91875,
0.919,
0.91925,
0.9195,
0.91975,
0.92,
0.92025,
0.9205,
0.92075,
0.921,
0.92125,
0.9215,
0.92175,
0.922,
0.92225,
0.9225,
0.92275,
0.923,
0.92325,
0.9235,
0.92375,
0.924,
0.92425,
0.9245,
0.92475,
0.925,
0.92525,
0.9255,
0.92575,
0.926,
0.92625,
0.9265,
0.92675,
0.927,
0.92725,
0.9275,
0.92775,
0.928,
0.92825,
0.9285,
0.92875,
0.929,
0.92925,
0.9295,
0.92975,
0.93,
0.93025,
0.9305,
0.93075,
0.931,
0.93125,
0.9315,
0.93175,
0.932,
0.93225,
0.9325,
0.93275,
0.933,
0.93325,
0.9335,
0.93375,
0.934,
0.93425,
0.9345,
0.93475,
0.935,
0.93525,
0.9355,
0.93575,
0.936,
0.93625,
0.9365,
0.93675,
0.937,
0.93725,
0.9375,
0.93775,
0.938,
0.93825,
0.9385,
0.93875,
0.939,
0.93925,
0.9395,
0.93975,
0.94,
0.94025,
0.9405,
0.94075,
0.941,
0.94125,
0.9415,
0.94175,
0.942,
0.94225,
0.9425,
0.94275,
0.943,
0.94325,
0.9435,
0.94375,
0.944,
0.94425,
0.9445,
0.94475,
0.945,
0.94525,
0.9455,
0.94575,
0.946,
0.94625,
0.9465,
0.94675,
0.947,
0.94725,
0.9475,
0.94775,
0.948,
0.94825,
0.9485,
0.94875,
0.949,
0.94925,
0.9495,
0.94975,
0.95,
0.95025,
0.9505,
0.95075,
0.951,
0.95125,
0.9515,
0.95175,
0.952,
0.95225,
0.9525,
0.95275,
0.953,
0.95325,
0.9535,
0.95375,
0.954,
0.95425,
0.9545,
0.95475,
0.955,
0.95525,
0.9555,
0.95575,
0.956,
0.95625,
0.9565,
0.95675,
0.957,
0.95725,
0.9575,
0.95775,
0.958,
0.95825,
0.9585,
0.95875,
0.959,
0.95925,
0.9595,
0.95975,
0.96,
0.96025,
0.9605,
0.96075,
0.961,
0.96125,
0.9615,
0.96175,
0.962,
0.96225,
0.9625,
0.96275,
0.963,
0.96325,
0.9635,
0.96375,
0.964,
0.96425,
0.9645,
0.96475,
0.965,
0.96525,
0.9655,
0.96575,
0.966,
0.96625,
0.9665,
0.96675,
0.967,
0.96725,
0.9675,
0.96775,
0.968,
0.96825,
0.9685,
0.96875,
0.969,
0.96925,
0.9695,
0.96975,
0.97,
0.97025,
0.9705,
0.97075,
0.971,
0.97125,
0.9715,
0.97175,
0.972,
0.97225,
0.9725,
0.97275,
0.973,
0.97325,
0.9735,
0.97375,
0.974,
0.97425,
0.9745,
0.97475,
0.975,
0.97525,
0.9755,
0.97575,
0.976,
0.97625,
0.9765,
0.97675,
0.977,
0.97725,
0.9775,
0.97775,
0.978,
0.97825,
0.9785,
0.97875,
0.979,
0.97925,
0.9795,
0.97975,
0.98,
0.98025,
0.9805,
0.98075,
0.981,
0.98125,
0.9815,
0.98175,
0.982,
0.98225,
0.9825,
0.98275,
0.983,
0.98325,
0.9835,
0.98375,
0.984,
0.98425,
0.9845,
0.98475,
0.985,
0.98525,
0.9855,
0.98575,
0.986,
0.98625,
0.9865,
0.98675,
0.987,
0.98725,
0.9875,
0.98775,
0.988,
0.98825,
0.9885,
0.98875,
0.989,
0.98925,
0.9895,
0.98975,
0.99,
0.99025,
0.9905,
0.99075,
0.991,
0.99125,
0.9915,
0.99175,
0.992,
0.99225,
0.9925,
0.99275,
0.993,
0.99325,
0.9935,
0.99375,
0.994,
0.99425,
0.9945,
0.99475,
0.995,
0.99525,
0.9955,
0.99575,
0.996,
0.99625,
0.9965,
0.99675,
0.997,
0.99725,
0.9975,
0.99775,
0.998,
0.99825,
0.9985,
0.99875,
0.999,
0.99925,
0.9995,
0.99975,
1,
1.00025,
1.0005,
1.00075,
1.001,
1.00125,
1.0015,
1.00175,
1.002,
1.00225,
1.0025,
1.00275,
1.003,
1.00325,
1.0035,
1.00375,
1.004,
1.00425,
1.0045,
1.00475,
1.005,
1.00525,
1.0055,
1.00575,
1.006,
1.00625,
1.0065,
1.00675,
1.007,
1.00725,
1.0075,
1.00775,
1.008,
1.00825,
1.0085,
1.00875,
1.009,
1.00925,
1.0095,
1.00975,
1.01,
1.01025,
1.0105,
1.01075,
1.011,
1.01125,
1.0115,
1.01175,
1.012,
1.01225,
1.0125,
1.01275,
1.013,
1.01325,
1.0135,
1.01375,
1.014,
1.01425,
1.0145,
1.01475,
1.015,
1.01525,
1.0155,
1.01575,
1.016,
1.01625,
1.0165,
1.01675,
1.017,
1.01725,
1.0175,
1.01775,
1.018,
1.01825,
1.0185,
1.01875,
1.019,
1.01925,
1.0195,
1.01975,
1.02,
1.02025,
1.0205,
1.02075,
1.021,
1.02125,
1.0215,
1.02175,
1.022,
1.02225,
1.0225,
1.02275,
1.023,
1.02325,
1.0235,
1.02375,
1.024,
1.02425,
1.0245,
1.02475,
1.025,
1.02525,
1.0255,
1.02575,
1.026,
1.02625,
1.0265,
1.02675,
1.027,
1.02725,
1.0275,
1.02775,
1.028,
1.02825,
1.0285,
1.02875,
1.029,
1.02925,
1.0295,
1.02975,
1.03,
1.03025,
1.0305,
1.03075,
1.031,
1.03125,
1.0315,
1.03175,
1.032,
1.03225,
1.0325,
1.03275,
1.033,
1.03325,
1.0335,
1.03375,
1.034,
1.03425,
1.0345,
1.03475,
1.035,
1.03525,
1.0355,
1.03575,
1.036,
1.03625,
1.0365,
1.03675,
1.037,
1.03725,
1.0375,
1.03775,
1.038,
1.03825,
1.0385,
1.03875,
1.039,
1.03925,
1.0395,
1.03975,
1.04,
1.04025,
1.0405,
1.04075,
1.041,
1.04125,
1.0415,
1.04175,
1.042,
1.04225,
1.0425,
1.04275,
1.043,
1.04325,
1.0435,
1.04375,
1.044,
1.04425,
1.0445,
1.04475,
1.045,
1.04525,
1.0455,
1.04575,
1.046,
1.04625,
1.0465,
1.04675,
1.047,
1.04725,
1.0475,
1.04775,
1.048,
1.04825,
1.0485,
1.04875,
1.049,
1.04925,
1.0495,
1.04975,
1.05,
1.05025,
1.0505,
1.05075,
1.051,
1.05125,
1.0515,
1.05175,
1.052,
1.05225,
1.0525,
1.05275,
1.053,
1.05325,
1.0535,
1.05375,
1.054,
1.05425,
1.0545,
1.05475,
1.055,
1.05525,
1.0555,
1.05575,
1.056,
1.05625,
1.0565,
1.05675,
1.057,
1.05725,
1.0575,
1.05775,
1.058,
1.05825,
1.0585,
1.05875,
1.059,
1.05925,
1.0595,
1.05975,
1.06,
1.06025,
1.0605,
1.06075,
1.061,
1.06125,
1.0615,
1.06175,
1.062,
1.06225,
1.0625,
1.06275,
1.063,
1.06325,
1.0635,
1.06375,
1.064,
1.06425,
1.0645,
1.06475,
1.065,
1.06525,
1.0655,
1.06575,
1.066,
1.06625,
1.0665,
1.06675,
1.067,
1.06725,
1.0675,
1.06775,
1.068,
1.06825,
1.0685,
1.06875,
1.069,
1.06925,
1.0695,
1.06975,
1.07,
1.07025,
1.0705,
1.07075,
1.071,
1.07125,
1.0715,
1.07175,
1.072,
1.07225,
1.0725,
1.07275,
1.073,
1.07325,
1.0735,
1.07375,
1.074,
1.07425,
1.0745,
1.07475,
1.075,
1.07525,
1.0755,
1.07575,
1.076,
1.07625,
1.0765,
1.07675,
1.077,
1.07725,
1.0775,
1.07775,
1.078,
1.07825,
1.0785,
1.07875,
1.079,
1.07925,
1.0795,
1.07975,
1.08,
1.08025,
1.0805,
1.08075,
1.081,
1.08125,
1.0815,
1.08175,
1.082,
1.08225,
1.0825,
1.08275,
1.083,
1.08325,
1.0835,
1.08375,
1.084,
1.08425,
1.0845,
1.08475,
1.085,
1.08525,
1.0855,
1.08575,
1.086,
1.08625,
1.0865,
1.08675,
1.087,
1.08725,
1.0875,
1.08775,
1.088,
1.08825,
1.0885,
1.08875,
1.089,
1.08925,
1.0895,
1.08975,
1.09,
1.09025,
1.0905,
1.09075,
1.091,
1.09125,
1.0915,
1.09175,
1.092,
1.09225,
1.0925,
1.09275,
1.093,
1.09325,
1.0935,
1.09375,
1.094,
1.09425,
1.0945,
1.09475,
1.095,
1.09525,
1.0955,
1.09575,
1.096,
1.09625,
1.0965,
1.09675,
1.097,
1.09725,
1.0975,
1.09775,
1.098,
1.09825,
1.0985,
1.09875,
1.099,
1.09925,
1.0995,
1.09975,
1.1,
1.10025,
1.1005,
1.10075,
1.101,
1.10125,
1.1015,
1.10175,
1.102,
1.10225,
1.1025,
1.10275,
1.103,
1.10325,
1.1035,
1.10375,
1.104,
1.10425,
1.1045,
1.10475,
1.105,
1.10525,
1.1055,
1.10575,
1.106,
1.10625,
1.1065,
1.10675,
1.107,
1.10725,
1.1075,
1.10775,
1.108,
1.10825,
1.1085,
1.10875,
1.109,
1.10925,
1.1095,
1.10975,
1.11,
1.11025,
1.1105,
1.11075,
1.111,
1.11125,
1.1115,
1.11175,
1.112,
1.11225,
1.1125,
1.11275,
1.113,
1.11325,
1.1135,
1.11375,
1.114,
1.11425,
1.1145,
1.11475,
1.115,
1.11525,
1.1155,
1.11575,
1.116,
1.11625,
1.1165,
1.11675,
1.117,
1.11725,
1.1175,
1.11775,
1.118,
1.11825,
1.1185,
1.11875,
1.119,
1.11925,
1.1195,
1.11975,
1.12,
1.12025,
1.1205,
1.12075,
1.121,
1.12125,
1.1215,
1.12175,
1.122,
1.12225,
1.1225,
1.12275,
1.123,
1.12325,
1.1235,
1.12375,
1.124,
1.12425,
1.1245,
1.12475,
1.125,
1.12525,
1.1255,
1.12575,
1.126,
1.12625,
1.1265,
1.12675,
1.127,
1.12725,
1.1275,
1.12775,
1.128,
1.12825,
1.1285,
1.12875,
1.129,
1.12925,
1.1295,
1.12975,
1.13,
1.13025,
1.1305,
1.13075,
1.131,
1.13125,
1.1315,
1.13175,
1.132,
1.13225,
1.1325,
1.13275,
1.133,
1.13325,
1.1335,
1.13375,
1.134,
1.13425,
1.1345,
1.13475,
1.135,
1.13525,
1.1355,
1.13575,
1.136,
1.13625,
1.1365,
1.13675,
1.137,
1.13725,
1.1375,
1.13775,
1.138,
1.13825,
1.1385,
1.13875,
1.139,
1.13925,
1.1395,
1.13975,
1.14,
1.14025,
1.1405,
1.14075,
1.141,
1.14125,
1.1415,
1.14175,
1.142,
1.14225,
1.1425,
1.14275,
1.143,
1.14325,
1.1435,
1.14375,
1.144,
1.14425,
1.1445,
1.14475,
1.145,
1.14525,
1.1455,
1.14575,
1.146,
1.14625,
1.1465,
1.14675,
1.147,
1.14725,
1.1475,
1.14775,
1.148,
1.14825,
1.1485,
1.14875,
1.149,
1.14925,
1.1495,
1.14975,
1.15,
1.15025,
1.1505,
1.15075,
1.151,
1.15125,
1.1515,
1.15175,
1.152,
1.15225,
1.1525,
1.15275,
1.153,
1.15325,
1.1535,
1.15375,
1.154,
1.15425,
1.1545,
1.15475,
1.155,
1.15525,
1.1555,
1.15575,
1.156,
1.15625,
1.1565,
1.15675,
1.157,
1.15725,
1.1575,
1.15775,
1.158,
1.15825,
1.1585,
1.15875,
1.159,
1.15925,
1.1595,
1.15975,
1.16,
1.16025,
1.1605,
1.16075,
1.161,
1.16125,
1.1615,
1.16175,
1.162,
1.16225,
1.1625,
1.16275,
1.163,
1.16325,
1.1635,
1.16375,
1.164,
1.16425,
1.1645,
1.16475,
1.165,
1.16525,
1.1655,
1.16575,
1.166,
1.16625,
1.1665,
1.16675,
1.167,
1.16725,
1.1675,
1.16775,
1.168,
1.16825,
1.1685,
1.16875,
1.169,
1.16925,
1.1695,
1.16975,
1.17,
1.17025,
1.1705,
1.17075,
1.171,
1.17125,
1.1715,
1.17175,
1.172,
1.17225,
1.1725,
1.17275,
1.173,
1.17325,
1.1735,
1.17375,
1.174,
1.17425,
1.1745,
1.17475,
1.175,
1.17525,
1.1755,
1.17575,
1.176,
1.17625,
1.1765,
1.17675,
1.177,
1.17725,
1.1775,
1.17775,
1.178,
1.17825,
1.1785,
1.17875,
1.179,
1.17925,
1.1795,
1.17975,
1.18,
1.18025,
1.1805,
1.18075,
1.181,
1.18125,
1.1815,
1.18175,
1.182,
1.18225,
1.1825,
1.18275,
1.183,
1.18325,
1.1835,
1.18375,
1.184,
1.18425,
1.1845,
1.18475,
1.185,
1.18525,
1.1855,
1.18575,
1.186,
1.18625,
1.1865,
1.18675,
1.187,
1.18725,
1.1875,
1.18775,
1.188,
1.18825,
1.1885,
1.18875,
1.189,
1.18925,
1.1895,
1.18975,
1.19,
1.19025,
1.1905,
1.19075,
1.191,
1.19125,
1.1915,
1.19175,
1.192,
1.19225,
1.1925,
1.19275,
1.193,
1.19325,
1.1935,
1.19375,
1.194,
1.19425,
1.1945,
1.19475,
1.195,
1.19525,
1.1955,
1.19575,
1.196,
1.19625,
1.1965,
1.19675,
1.197,
1.19725,
1.1975,
1.19775,
1.198,
1.19825,
1.1985,
1.19875,
1.199,
1.19925,
1.1995,
1.19975,
1.2,
1.20025,
1.2005,
1.20075,
1.201,
1.20125,
1.2015,
1.20175,
1.202,
1.20225,
1.2025,
1.20275,
1.203,
1.20325,
1.2035,
1.20375,
1.204,
1.20425,
1.2045,
1.20475,
1.205,
1.20525,
1.2055,
1.20575,
1.206,
1.20625,
1.2065,
1.20675,
1.207,
1.20725,
1.2075,
1.20775,
1.208,
1.20825,
1.2085,
1.20875,
1.209,
1.20925,
1.2095,
1.20975,
1.21,
1.21025,
1.2105,
1.21075,
1.211,
1.21125,
1.2115,
1.21175,
1.212,
1.21225,
1.2125,
1.21275,
1.213,
1.21325,
1.2135,
1.21375,
1.214,
1.21425,
1.2145,
1.21475,
1.215,
1.21525,
1.2155,
1.21575,
1.216,
1.21625,
1.2165,
1.21675,
1.217,
1.21725,
1.2175,
1.21775,
1.218,
1.21825,
1.2185,
1.21875,
1.219,
1.21925,
1.2195,
1.21975,
1.22,
1.22025,
1.2205,
1.22075,
1.221,
1.22125,
1.2215,
1.22175,
1.222,
1.22225,
1.2225,
1.22275,
1.223,
1.22325,
1.2235,
1.22375,
1.224,
1.22425,
1.2245,
1.22475,
1.225,
1.22525,
1.2255,
1.22575,
1.226,
1.22625,
1.2265,
1.22675,
1.227,
1.22725,
1.2275,
1.22775,
1.228,
1.22825,
1.2285,
1.22875,
1.229,
1.22925,
1.2295,
1.22975,
1.23,
1.23025,
1.2305,
1.23075,
1.231,
1.23125,
1.2315,
1.23175,
1.232,
1.23225,
1.2325,
1.23275,
1.233,
1.23325,
1.2335,
1.23375,
1.234,
1.23425,
1.2345,
1.23475,
1.235,
1.23525,
1.2355,
1.23575,
1.236,
1.23625,
1.2365,
1.23675,
1.237,
1.23725,
1.2375,
1.23775,
1.238,
1.23825,
1.2385,
1.23875,
1.239,
1.23925,
1.2395,
1.23975,
1.24,
1.24025,
1.2405,
1.24075,
1.241,
1.24125,
1.2415,
1.24175,
1.242,
1.24225,
1.2425,
1.24275,
1.243,
1.24325,
1.2435,
1.24375,
1.244,
1.24425,
1.2445,
1.24475,
1.245,
1.24525,
1.2455,
1.24575,
1.246,
1.24625,
1.2465,
1.24675,
1.247,
1.24725,
1.2475,
1.24775,
1.248,
1.24825,
1.2485,
1.24875,
1.249,
1.24925,
1.2495,
1.24975,
1.25,
1.25025,
1.2505,
1.25075,
1.251,
1.25125,
1.2515,
1.25175,
1.252,
1.25225,
1.2525,
1.25275,
1.253,
1.25325,
1.2535,
1.25375,
1.254,
1.25425,
1.2545,
1.25475,
1.255,
1.25525,
1.2555,
1.25575,
1.256,
1.25625,
1.2565,
1.25675,
1.257,
1.25725,
1.2575,
1.25775,
1.258,
1.25825,
1.2585,
1.25875,
1.259,
1.25925,
1.2595,
1.25975,
1.26,
1.26025,
1.2605,
1.26075,
1.261,
1.26125,
1.2615,
1.26175,
1.262,
1.26225,
1.2625,
1.26275,
1.263,
1.26325,
1.2635,
1.26375,
1.264,
1.26425,
1.2645,
1.26475,
1.265,
1.26525,
1.2655,
1.26575,
1.266,
1.26625,
1.2665,
1.26675,
1.267,
1.26725,
1.2675,
1.26775,
1.268,
1.26825,
1.2685,
1.26875,
1.269,
1.26925,
1.2695,
1.26975,
1.27,
1.27025,
1.2705,
1.27075,
1.271,
1.27125,
1.2715,
1.27175,
1.272,
1.27225,
1.2725,
1.27275,
1.273,
1.27325,
1.2735,
1.27375,
1.274,
1.27425,
1.2745,
1.27475,
1.275,
1.27525,
1.2755,
1.27575,
1.276,
1.27625,
1.2765,
1.27675,
1.277,
1.27725,
1.2775,
1.27775,
1.278,
1.27825,
1.2785,
1.27875,
1.279,
1.27925,
1.2795,
1.27975,
1.28,
1.28025,
1.2805,
1.28075,
1.281,
1.28125,
1.2815,
1.28175,
1.282,
1.28225,
1.2825,
1.28275,
1.283,
1.28325,
1.2835,
1.28375,
1.284,
1.28425,
1.2845,
1.28475,
1.285,
1.28525,
1.2855,
1.28575,
1.286,
1.28625,
1.2865,
1.28675,
1.287,
1.28725,
1.2875,
1.28775,
1.288,
1.28825,
1.2885,
1.28875,
1.289,
1.28925,
1.2895,
1.28975,
1.29,
1.29025,
1.2905,
1.29075,
1.291,
1.29125,
1.2915,
1.29175,
1.292,
1.29225,
1.2925,
1.29275,
1.293,
1.29325,
1.2935,
1.29375,
1.294,
1.29425,
1.2945,
1.29475,
1.295,
1.29525,
1.2955,
1.29575,
1.296,
1.29625,
1.2965,
1.29675,
1.297,
1.29725,
1.2975,
1.29775,
1.298,
1.29825,
1.2985,
1.29875,
1.299,
1.29925,
1.2995,
1.29975,
1.3,
1.30025,
1.3005,
1.30075,
1.301,
1.30125,
1.3015,
1.30175,
1.302,
1.30225,
1.3025,
1.30275,
1.303,
1.30325,
1.3035,
1.30375,
1.304,
1.30425,
1.3045,
1.30475,
1.305,
1.30525,
1.3055,
1.30575,
1.306,
1.30625,
1.3065,
1.30675,
1.307,
1.30725,
1.3075,
1.30775,
1.308,
1.30825,
1.3085,
1.30875,
1.309,
1.30925,
1.3095,
1.30975,
1.31,
1.31025,
1.3105,
1.31075,
1.311,
1.31125,
1.3115,
1.31175,
1.312,
1.31225,
1.3125,
1.31275,
1.313,
1.31325,
1.3135,
1.31375,
1.314,
1.31425,
1.3145,
1.31475,
1.315,
1.31525,
1.3155,
1.31575,
1.316,
1.31625,
1.3165,
1.31675,
1.317,
1.31725,
1.3175,
1.31775,
1.318,
1.31825,
1.3185,
1.31875,
1.319,
1.31925,
1.3195,
1.31975,
1.32,
1.32025,
1.3205,
1.32075,
1.321,
1.32125,
1.3215,
1.32175,
1.322,
1.32225,
1.3225,
1.32275,
1.323,
1.32325,
1.3235,
1.32375,
1.324,
1.32425,
1.3245,
1.32475,
1.325,
1.32525,
1.3255,
1.32575,
1.326,
1.32625,
1.3265,
1.32675,
1.327,
1.32725,
1.3275,
1.32775,
1.328,
1.32825,
1.3285,
1.32875,
1.329,
1.32925,
1.3295,
1.32975,
1.33,
1.33025,
1.3305,
1.33075,
1.331,
1.33125,
1.3315,
1.33175,
1.332,
1.33225,
1.3325,
1.33275,
1.333,
1.33325,
1.3335,
1.33375,
1.334,
1.33425,
1.3345,
1.33475,
1.335,
1.33525,
1.3355,
1.33575,
1.336,
1.33625,
1.3365,
1.33675,
1.337,
1.33725,
1.3375,
1.33775,
1.338,
1.33825,
1.3385,
1.33875,
1.339,
1.33925,
1.3395,
1.33975,
1.34,
1.34025,
1.3405,
1.34075,
1.341,
1.34125,
1.3415,
1.34175,
1.342,
1.34225,
1.3425,
1.34275,
1.343,
1.34325,
1.3435,
1.34375,
1.344,
1.34425,
1.3445,
1.34475,
1.345,
1.34525,
1.3455,
1.34575,
1.346,
1.34625,
1.3465,
1.34675,
1.347,
1.34725,
1.3475,
1.34775,
1.348,
1.34825,
1.3485,
1.34875,
1.349,
1.34925,
1.3495,
1.34975,
1.35,
1.35025,
1.3505,
1.35075,
1.351,
1.35125,
1.3515,
1.35175,
1.352,
1.35225,
1.3525,
1.35275,
1.353,
1.35325,
1.3535,
1.35375,
1.354,
1.35425,
1.3545,
1.35475,
1.355,
1.35525,
1.3555,
1.35575,
1.356,
1.35625,
1.3565,
1.35675,
1.357,
1.35725,
1.3575,
1.35775,
1.358,
1.35825,
1.3585,
1.35875,
1.359,
1.35925,
1.3595,
1.35975,
1.36,
1.36025,
1.3605,
1.36075,
1.361,
1.36125,
1.3615,
1.36175,
1.362,
1.36225,
1.3625,
1.36275,
1.363,
1.36325,
1.3635,
1.36375,
1.364,
1.36425,
1.3645,
1.36475,
1.365,
1.36525,
1.3655,
1.36575,
1.366,
1.36625,
1.3665,
1.36675,
1.367,
1.36725,
1.3675,
1.36775,
1.368,
1.36825,
1.3685,
1.36875,
1.369,
1.36925,
1.3695,
1.36975,
1.37,
1.37025,
1.3705,
1.37075,
1.371,
1.37125,
1.3715,
1.37175,
1.372,
1.37225,
1.3725,
1.37275,
1.373,
1.37325,
1.3735,
1.37375,
1.374,
1.37425,
1.3745,
1.37475,
1.375,
1.37525,
1.3755,
1.37575,
1.376,
1.37625,
1.3765,
1.37675,
1.377,
1.37725,
1.3775,
1.37775,
1.378,
1.37825,
1.3785,
1.37875,
1.379,
1.37925,
1.3795,
1.37975,
1.38,
1.38025,
1.3805,
1.38075,
1.381,
1.38125,
1.3815,
1.38175,
1.382,
1.38225,
1.3825,
1.38275,
1.383,
1.38325,
1.3835,
1.38375,
1.384,
1.38425,
1.3845,
1.38475,
1.385,
1.38525,
1.3855,
1.38575,
1.386,
1.38625,
1.3865,
1.38675,
1.387,
1.38725,
1.3875,
1.38775,
1.388,
1.38825,
1.3885,
1.38875,
1.389,
1.38925,
1.3895,
1.38975,
1.39,
1.39025,
1.3905,
1.39075,
1.391,
1.39125,
1.3915,
1.39175,
1.392,
1.39225,
1.3925,
1.39275,
1.393,
1.39325,
1.3935,
1.39375,
1.394,
1.39425,
1.3945,
1.39475,
1.395,
1.39525,
1.3955,
1.39575,
1.396,
1.39625,
1.3965,
1.39675,
1.397,
1.39725,
1.3975,
1.39775,
1.398,
1.39825,
1.3985,
1.39875,
1.399,
1.39925,
1.3995,
1.39975,
1.4,
1.40025,
1.4005,
1.40075,
1.401,
1.40125,
1.4015,
1.40175,
1.402,
1.40225,
1.4025,
1.40275,
1.403,
1.40325,
1.4035,
1.40375,
1.404,
1.40425,
1.4045,
1.40475,
1.405,
1.40525,
1.4055,
1.40575,
1.406,
1.40625,
1.4065,
1.40675,
1.407,
1.40725,
1.4075,
1.40775,
1.408,
1.40825,
1.4085,
1.40875,
1.409,
1.40925,
1.4095,
1.40975,
1.41,
1.41025,
1.4105,
1.41075,
1.411,
1.41125,
1.4115,
1.41175,
1.412,
1.41225,
1.4125,
1.41275,
1.413,
1.41325,
1.4135,
1.41375,
1.414,
1.41425,
1.4145,
1.41475,
1.415,
1.41525,
1.4155,
1.41575,
1.416,
1.41625,
1.4165,
1.41675,
1.417,
1.41725,
1.4175,
1.41775,
1.418,
1.41825,
1.4185,
1.41875,
1.419,
1.41925,
1.4195,
1.41975,
1.42,
1.42025,
1.4205,
1.42075,
1.421,
1.42125,
1.4215,
1.42175,
1.422,
1.42225,
1.4225,
1.42275,
1.423,
1.42325,
1.4235,
1.42375,
1.424,
1.42425,
1.4245,
1.42475,
1.425,
1.42525,
1.4255,
1.42575,
1.426,
1.42625,
1.4265,
1.42675,
1.427,
1.42725,
1.4275,
1.42775,
1.428,
1.42825,
1.4285,
1.42875,
1.429,
1.42925,
1.4295,
1.42975,
1.43,
1.43025,
1.4305,
1.43075,
1.431,
1.43125,
1.4315,
1.43175,
1.432,
1.43225,
1.4325,
1.43275,
1.433,
1.43325,
1.4335,
1.43375,
1.434,
1.43425,
1.4345,
1.43475,
1.435,
1.43525,
1.4355,
1.43575,
1.436,
1.43625,
1.4365,
1.43675,
1.437,
1.43725,
1.4375,
1.43775,
1.438,
1.43825,
1.4385,
1.43875,
1.439,
1.43925,
1.4395,
1.43975,
1.44,
1.44025,
1.4405,
1.44075,
1.441,
1.44125,
1.4415,
1.44175,
1.442,
1.44225,
1.4425,
1.44275,
1.443,
1.44325,
1.4435,
1.44375,
1.444,
1.44425,
1.4445,
1.44475,
1.445,
1.44525,
1.4455,
1.44575,
1.446,
1.44625,
1.4465,
1.44675,
1.447,
1.44725,
1.4475,
1.44775,
1.448,
1.44825,
1.4485,
1.44875,
1.449,
1.44925,
1.4495,
1.44975,
1.45,
1.45025,
1.4505,
1.45075,
1.451,
1.45125,
1.4515,
1.45175,
1.452,
1.45225,
1.4525,
1.45275,
1.453,
1.45325,
1.4535,
1.45375,
1.454,
1.45425,
1.4545,
1.45475,
1.455,
1.45525,
1.4555,
1.45575,
1.456,
1.45625,
1.4565,
1.45675,
1.457,
1.45725,
1.4575,
1.45775,
1.458,
1.45825,
1.4585,
1.45875,
1.459,
1.45925,
1.4595,
1.45975,
1.46,
1.46025,
1.4605,
1.46075,
1.461,
1.46125,
1.4615,
1.46175,
1.462,
1.46225,
1.4625,
1.46275,
1.463,
1.46325,
1.4635,
1.46375,
1.464,
1.46425,
1.4645,
1.46475,
1.465,
1.46525,
1.4655,
1.46575,
1.466,
1.46625,
1.4665,
1.46675,
1.467,
1.46725,
1.4675,
1.46775,
1.468,
1.46825,
1.4685,
1.46875,
1.469,
1.46925,
1.4695,
1.46975,
1.47,
1.47025,
1.4705,
1.47075,
1.471,
1.47125,
1.4715,
1.47175,
1.472,
1.47225,
1.4725,
1.47275,
1.473,
1.47325,
1.4735,
1.47375,
1.474,
1.47425,
1.4745,
1.47475,
1.475,
1.47525,
1.4755,
1.47575,
1.476,
1.47625,
1.4765,
1.47675,
1.477,
1.47725,
1.4775,
1.47775,
1.478,
1.47825,
1.4785,
1.47875,
1.479,
1.47925,
1.4795,
1.47975,
1.48,
1.48025,
1.4805,
1.48075,
1.481,
1.48125,
1.4815,
1.48175,
1.482,
1.48225,
1.4825,
1.48275,
1.483,
1.48325,
1.4835,
1.48375,
1.484,
1.48425,
1.4845,
1.48475,
1.485,
1.48525,
1.4855,
1.48575,
1.486,
1.48625,
1.4865,
1.48675,
1.487,
1.48725,
1.4875,
1.48775,
1.488,
1.48825,
1.4885,
1.48875,
1.489,
1.48925,
1.4895,
1.48975,
1.49,
1.49025,
1.4905,
1.49075,
1.491,
1.49125,
1.4915,
1.49175,
1.492,
1.49225,
1.4925,
1.49275,
1.493,
1.49325,
1.4935,
1.49375,
1.494,
1.49425,
1.4945,
1.49475,
1.495,
1.49525,
1.4955,
1.49575,
1.496,
1.49625,
1.4965,
1.49675,
1.497,
1.49725,
1.4975,
1.49775,
1.498,
1.49825,
1.4985,
1.49875,
1.499,
1.49925,
1.4995,
1.49975,
1.5,
1.50025,
1.5005,
1.50075,
1.501,
1.50125,
1.5015,
1.50175,
1.502,
1.50225,
1.5025,
1.50275,
1.503,
1.50325,
1.5035,
1.50375,
1.504,
1.50425,
1.5045,
1.50475,
1.505,
1.50525,
1.5055,
1.50575,
1.506,
1.50625,
1.5065,
1.50675,
1.507,
1.50725,
1.5075,
1.50775,
1.508,
1.50825,
1.5085,
1.50875,
1.509,
1.50925,
1.5095,
1.50975,
1.51,
1.51025,
1.5105,
1.51075,
1.511,
1.51125,
1.5115,
1.51175,
1.512,
1.51225,
1.5125,
1.51275,
1.513,
1.51325,
1.5135,
1.51375,
1.514,
1.51425,
1.5145,
1.51475,
1.515,
1.51525,
1.5155,
1.51575,
1.516,
1.51625,
1.5165,
1.51675,
1.517,
1.51725,
1.5175,
1.51775,
1.518,
1.51825,
1.5185,
1.51875,
1.519,
1.51925,
1.5195,
1.51975,
1.52,
1.52025,
1.5205,
1.52075,
1.521,
1.52125,
1.5215,
1.52175,
1.522,
1.52225,
1.5225,
1.52275,
1.523,
1.52325,
1.5235,
1.52375,
1.524,
1.52425,
1.5245,
1.52475,
1.525,
1.52525,
1.5255,
1.52575,
1.526,
1.52625,
1.5265,
1.52675,
1.527,
1.52725,
1.5275,
1.52775,
1.528,
1.52825,
1.5285,
1.52875,
1.529,
1.52925,
1.5295,
1.52975,
1.53,
1.53025,
1.5305,
1.53075,
1.531,
1.53125,
1.5315,
1.53175,
1.532,
1.53225,
1.5325,
1.53275,
1.533,
1.53325,
1.5335,
1.53375,
1.534,
1.53425,
1.5345,
1.53475,
1.535,
1.53525,
1.5355,
1.53575,
1.536,
1.53625,
1.5365,
1.53675,
1.537,
1.53725,
1.5375,
1.53775,
1.538,
1.53825,
1.5385,
1.53875,
1.539,
1.53925,
1.5395,
1.53975,
1.54,
1.54025,
1.5405,
1.54075,
1.541,
1.54125,
1.5415,
1.54175,
1.542,
1.54225,
1.5425,
1.54275,
1.543,
1.54325,
1.5435,
1.54375,
1.544,
1.54425,
1.5445,
1.54475,
1.545,
1.54525,
1.5455,
1.54575,
1.546,
1.54625,
1.5465,
1.54675,
1.547,
1.54725,
1.5475,
1.54775,
1.548,
1.54825,
1.5485,
1.54875,
1.549,
1.54925,
1.5495,
1.54975,
1.55,
1.55025,
1.5505,
1.55075,
1.551,
1.55125,
1.5515,
1.55175,
1.552,
1.55225,
1.5525,
1.55275,
1.553,
1.55325,
1.5535,
1.55375,
1.554,
1.55425,
1.5545,
1.55475,
1.555,
1.55525,
1.5555,
1.55575,
1.556,
1.55625,
1.5565,
1.55675,
1.557,
1.55725,
1.5575,
1.55775,
1.558,
1.55825,
1.5585,
1.55875,
1.559,
1.55925,
1.5595,
1.55975,
1.56,
1.56025,
1.5605,
1.56075,
1.561,
1.56125,
1.5615,
1.56175,
1.562,
1.56225,
1.5625,
1.56275,
1.563,
1.56325,
1.5635,
1.56375,
1.564,
1.56425,
1.5645,
1.56475,
1.565,
1.56525,
1.5655,
1.56575,
1.566,
1.56625,
1.5665,
1.56675,
1.567,
1.56725,
1.5675,
1.56775,
1.568,
1.56825,
1.5685,
1.56875,
1.569,
1.56925,
1.5695,
1.56975,
1.57,
1.57025,
1.5705,
1.57075,
1.571,
1.57125,
1.5715,
1.57175,
1.572,
1.57225,
1.5725,
1.57275,
1.573,
1.57325,
1.5735,
1.57375,
1.574,
1.57425,
1.5745,
1.57475,
1.575,
1.57525,
1.5755,
1.57575,
1.576,
1.57625,
1.5765,
1.57675,
1.577,
1.57725,
1.5775,
1.57775,
1.578,
1.57825,
1.5785,
1.57875,
1.579,
1.57925,
1.5795,
1.57975,
1.58,
1.58025,
1.5805,
1.58075,
1.581,
1.58125,
1.5815,
1.58175,
1.582,
1.58225,
1.5825,
1.58275,
1.583,
1.58325,
1.5835,
1.58375,
1.584,
1.58425,
1.5845,
1.58475,
1.585,
1.58525,
1.5855,
1.58575,
1.586,
1.58625,
1.5865,
1.58675,
1.587,
1.58725,
1.5875,
1.58775,
1.588,
1.58825,
1.5885,
1.58875,
1.589,
1.58925,
1.5895,
1.58975,
1.59,
1.59025,
1.5905,
1.59075,
1.591,
1.59125,
1.5915,
1.59175,
1.592,
1.59225,
1.5925,
1.59275,
1.593,
1.59325,
1.5935,
1.59375,
1.594,
1.59425,
1.5945,
1.59475,
1.595,
1.59525,
1.5955,
1.59575,
1.596,
1.59625,
1.5965,
1.59675,
1.597,
1.59725,
1.5975,
1.59775,
1.598,
1.59825,
1.5985,
1.59875,
1.599,
1.59925,
1.5995,
1.59975,
1.6,
1.60025,
1.6005,
1.60075,
1.601,
1.60125,
1.6015,
1.60175,
1.602,
1.60225,
1.6025,
1.60275,
1.603,
1.60325,
1.6035,
1.60375,
1.604,
1.60425,
1.6045,
1.60475,
1.605,
1.60525,
1.6055,
1.60575,
1.606,
1.60625,
1.6065,
1.60675,
1.607,
1.60725,
1.6075,
1.60775,
1.608,
1.60825,
1.6085,
1.60875,
1.609,
1.60925,
1.6095,
1.60975,
1.61,
1.61025,
1.6105,
1.61075,
1.611,
1.61125,
1.6115,
1.61175,
1.612,
1.61225,
1.6125,
1.61275,
1.613,
1.61325,
1.6135,
1.61375,
1.614,
1.61425,
1.6145,
1.61475,
1.615,
1.61525,
1.6155,
1.61575,
1.616,
1.61625,
1.6165,
1.61675,
1.617,
1.61725,
1.6175,
1.61775,
1.618,
1.61825,
1.6185,
1.61875,
1.619,
1.61925,
1.6195,
1.61975,
1.62,
1.62025,
1.6205,
1.62075,
1.621,
1.62125,
1.6215,
1.62175,
1.622,
1.62225,
1.6225,
1.62275,
1.623,
1.62325,
1.6235,
1.62375,
1.624,
1.62425,
1.6245,
1.62475,
1.625,
1.62525,
1.6255,
1.62575,
1.626,
1.62625,
1.6265,
1.62675,
1.627,
1.62725,
1.6275,
1.62775,
1.628,
1.62825,
1.6285,
1.62875,
1.629,
1.62925,
1.6295,
1.62975,
1.63,
1.63025,
1.6305,
1.63075,
1.631,
1.63125,
1.6315,
1.63175,
1.632,
1.63225,
1.6325,
1.63275,
1.633,
1.63325,
1.6335,
1.63375,
1.634,
1.63425,
1.6345,
1.63475,
1.635,
1.63525,
1.6355,
1.63575,
1.636,
1.63625,
1.6365,
1.63675,
1.637,
1.63725,
1.6375,
1.63775,
1.638,
1.63825,
1.6385,
1.63875,
1.639,
1.63925,
1.6395,
1.63975,
1.64,
1.64025,
1.6405,
1.64075,
1.641,
1.64125,
1.6415,
1.64175,
1.642,
1.64225,
1.6425,
1.64275,
1.643,
1.64325,
1.6435,
1.64375,
1.644,
1.64425,
1.6445,
1.64475,
1.645,
1.64525,
1.6455,
1.64575,
1.646,
1.64625,
1.6465,
1.64675,
1.647,
1.64725,
1.6475,
1.64775,
1.648,
1.64825,
1.6485,
1.64875,
1.649,
1.64925,
1.6495,
1.64975,
1.65,
1.65025,
1.6505,
1.65075,
1.651,
1.65125,
1.6515,
1.65175,
1.652,
1.65225,
1.6525,
1.65275,
1.653,
1.65325,
1.6535,
1.65375,
1.654,
1.65425,
1.6545,
1.65475,
1.655,
1.65525,
1.6555,
1.65575,
1.656,
1.65625,
1.6565,
1.65675,
1.657,
1.65725,
1.6575,
1.65775,
1.658,
1.65825,
1.6585,
1.65875,
1.659,
1.65925,
1.6595,
1.65975,
1.66,
1.66025,
1.6605,
1.66075,
1.661,
1.66125,
1.6615,
1.66175,
1.662,
1.66225,
1.6625,
1.66275,
1.663,
1.66325,
1.6635,
1.66375,
1.664,
1.66425,
1.6645,
1.66475,
1.665,
1.66525,
1.6655,
1.66575,
1.666,
1.66625,
1.6665,
1.66675,
1.667,
1.66725,
1.6675,
1.66775,
1.668,
1.66825,
1.6685,
1.66875,
1.669,
1.66925,
1.6695,
1.66975,
1.67,
1.67025,
1.6705,
1.67075,
1.671,
1.67125,
1.6715,
1.67175,
1.672,
1.67225,
1.6725,
1.67275,
1.673,
1.67325,
1.6735,
1.67375,
1.674,
1.67425,
1.6745,
1.67475,
1.675,
1.67525,
1.6755,
1.67575,
1.676,
1.67625,
1.6765,
1.67675,
1.677,
1.67725,
1.6775,
1.67775,
1.678,
1.67825,
1.6785,
1.67875,
1.679,
1.67925,
1.6795,
1.67975,
1.68,
1.68025,
1.6805,
1.68075,
1.681,
1.68125,
1.6815,
1.68175,
1.682,
1.68225,
1.6825,
1.68275,
1.683,
1.68325,
1.6835,
1.68375,
1.684,
1.68425,
1.6845,
1.68475,
1.685,
1.68525,
1.6855,
1.68575,
1.686,
1.68625,
1.6865,
1.68675,
1.687,
1.68725,
1.6875,
1.68775,
1.688,
1.68825,
1.6885,
1.68875,
1.689,
1.68925,
1.6895,
1.68975,
1.69,
1.69025,
1.6905,
1.69075,
1.691,
1.69125,
1.6915,
1.69175,
1.692,
1.69225,
1.6925,
1.69275,
1.693,
1.69325,
1.6935,
1.69375,
1.694,
1.69425,
1.6945,
1.69475,
1.695,
1.69525,
1.6955,
1.69575,
1.696,
1.69625,
1.6965,
1.69675,
1.697,
1.69725,
1.6975,
1.69775,
1.698,
1.69825,
1.6985,
1.69875,
1.699,
1.69925,
1.6995,
1.69975,
1.7,
1.70025,
1.7005,
1.70075,
1.701,
1.70125,
1.7015,
1.70175,
1.702,
1.70225,
1.7025,
1.70275,
1.703,
1.70325,
1.7035,
1.70375,
1.704,
1.70425,
1.7045,
1.70475,
1.705,
1.70525,
1.7055,
1.70575,
1.706,
1.70625,
1.7065,
1.70675,
1.707,
1.70725,
1.7075,
1.70775,
1.708,
1.70825,
1.7085,
1.70875,
1.709,
1.70925,
1.7095,
1.70975,
1.71,
1.71025,
1.7105,
1.71075,
1.711,
1.71125,
1.7115,
1.71175,
1.712,
1.71225,
1.7125,
1.71275,
1.713,
1.71325,
1.7135,
1.71375,
1.714,
1.71425,
1.7145,
1.71475,
1.715,
1.71525,
1.7155,
1.71575,
1.716,
1.71625,
1.7165,
1.71675,
1.717,
1.71725,
1.7175,
1.71775,
1.718,
1.71825,
1.7185,
1.71875,
1.719,
1.71925,
1.7195,
1.71975,
1.72,
1.72025,
1.7205,
1.72075,
1.721,
1.72125,
1.7215,
1.72175,
1.722,
1.72225,
1.7225,
1.72275,
1.723,
1.72325,
1.7235,
1.72375,
1.724,
1.72425,
1.7245,
1.72475,
1.725,
1.72525,
1.7255,
1.72575,
1.726,
1.72625,
1.7265,
1.72675,
1.727,
1.72725,
1.7275,
1.72775,
1.728,
1.72825,
1.7285,
1.72875,
1.729,
1.72925,
1.7295,
1.72975,
1.73,
1.73025,
1.7305,
1.73075,
1.731,
1.73125,
1.7315,
1.73175,
1.732,
1.73225,
1.7325,
1.73275,
1.733,
1.73325,
1.7335,
1.73375,
1.734,
1.73425,
1.7345,
1.73475,
1.735,
1.73525,
1.7355,
1.73575,
1.736,
1.73625,
1.7365,
1.73675,
1.737,
1.73725,
1.7375,
1.73775,
1.738,
1.73825,
1.7385,
1.73875,
1.739,
1.73925,
1.7395,
1.73975,
1.74,
1.74025,
1.7405,
1.74075,
1.741,
1.74125,
1.7415,
1.74175,
1.742,
1.74225,
1.7425,
1.74275,
1.743,
1.74325,
1.7435,
1.74375,
1.744,
1.74425,
1.7445,
1.74475,
1.745,
1.74525,
1.7455,
1.74575,
1.746,
1.74625,
1.7465,
1.74675,
1.747,
1.74725,
1.7475,
1.74775,
1.748,
1.74825,
1.7485,
1.74875,
1.749,
1.74925,
1.7495,
1.74975,
1.75,
1.75025,
1.7505,
1.75075,
1.751,
1.75125,
1.7515,
1.75175,
1.752,
1.75225,
1.7525,
1.75275,
1.753,
1.75325,
1.7535,
1.75375,
1.754,
1.75425,
1.7545,
1.75475,
1.755,
1.75525,
1.7555,
1.75575,
1.756,
1.75625,
1.7565,
1.75675,
1.757,
1.75725,
1.7575,
1.75775,
1.758,
1.75825,
1.7585,
1.75875,
1.759,
1.75925,
1.7595,
1.75975,
1.76,
1.76025,
1.7605,
1.76075,
1.761,
1.76125,
1.7615,
1.76175,
1.762,
1.76225,
1.7625,
1.76275,
1.763,
1.76325,
1.7635,
1.76375,
1.764,
1.76425,
1.7645,
1.76475,
1.765,
1.76525,
1.7655,
1.76575,
1.766,
1.76625,
1.7665,
1.76675,
1.767,
1.76725,
1.7675,
1.76775,
1.768,
1.76825,
1.7685,
1.76875,
1.769,
1.76925,
1.7695,
1.76975,
1.77,
1.77025,
1.7705,
1.77075,
1.771,
1.77125,
1.7715,
1.77175,
1.772,
1.77225,
1.7725,
1.77275,
1.773,
1.77325,
1.7735,
1.77375,
1.774,
1.77425,
1.7745,
1.77475,
1.775,
1.77525,
1.7755,
1.77575,
1.776,
1.77625,
1.7765,
1.77675,
1.777,
1.77725,
1.7775,
1.77775,
1.778,
1.77825,
1.7785,
1.77875,
1.779,
1.77925,
1.7795,
1.77975,
1.78,
1.78025,
1.7805,
1.78075,
1.781,
1.78125,
1.7815,
1.78175,
1.782,
1.78225,
1.7825,
1.78275,
1.783,
1.78325,
1.7835,
1.78375,
1.784,
1.78425,
1.7845,
1.78475,
1.785,
1.78525,
1.7855,
1.78575,
1.786,
1.78625,
1.7865,
1.78675,
1.787,
1.78725,
1.7875,
1.78775,
1.788,
1.78825,
1.7885,
1.78875,
1.789,
1.78925,
1.7895,
1.78975,
1.79,
1.79025,
1.7905,
1.79075,
1.791,
1.79125,
1.7915,
1.79175,
1.792,
1.79225,
1.7925,
1.79275,
1.793,
1.79325,
1.7935,
1.79375,
1.794,
1.79425,
1.7945,
1.79475,
1.795,
1.79525,
1.7955,
1.79575,
1.796,
1.79625,
1.7965,
1.79675,
1.797,
1.79725,
1.7975,
1.79775,
1.798,
1.79825,
1.7985,
1.79875,
1.799,
1.79925,
1.7995,
1.79975,
1.8,
1.80025,
1.8005,
1.80075,
1.801,
1.80125,
1.8015,
1.80175,
1.802,
1.80225,
1.8025,
1.80275,
1.803,
1.80325,
1.8035,
1.80375,
1.804,
1.80425,
1.8045,
1.80475,
1.805,
1.80525,
1.8055,
1.80575,
1.806,
1.80625,
1.8065,
1.80675,
1.807,
1.80725,
1.8075,
1.80775,
1.808,
1.80825,
1.8085,
1.80875,
1.809,
1.80925,
1.8095,
1.80975,
1.81,
1.81025,
1.8105,
1.81075,
1.811,
1.81125,
1.8115,
1.81175,
1.812,
1.81225,
1.8125,
1.81275,
1.813,
1.81325,
1.8135,
1.81375,
1.814,
1.81425,
1.8145,
1.81475,
1.815,
1.81525,
1.8155,
1.81575,
1.816,
1.81625,
1.8165,
1.81675,
1.817,
1.81725,
1.8175,
1.81775,
1.818,
1.81825,
1.8185,
1.81875,
1.819,
1.81925,
1.8195,
1.81975,
1.82,
1.82025,
1.8205,
1.82075,
1.821,
1.82125,
1.8215,
1.82175,
1.822,
1.82225,
1.8225,
1.82275,
1.823,
1.82325,
1.8235,
1.82375,
1.824,
1.82425,
1.8245,
1.82475,
1.825,
1.82525,
1.8255,
1.82575,
1.826,
1.82625,
1.8265,
1.82675,
1.827,
1.82725,
1.8275,
1.82775,
1.828,
1.82825,
1.8285,
1.82875,
1.829,
1.82925,
1.8295,
1.82975,
1.83,
1.83025,
1.8305,
1.83075,
1.831,
1.83125,
1.8315,
1.83175,
1.832,
1.83225,
1.8325,
1.83275,
1.833,
1.83325,
1.8335,
1.83375,
1.834,
1.83425,
1.8345,
1.83475,
1.835,
1.83525,
1.8355,
1.83575,
1.836,
1.83625,
1.8365,
1.83675,
1.837,
1.83725,
1.8375,
1.83775,
1.838,
1.83825,
1.8385,
1.83875,
1.839,
1.83925,
1.8395,
1.83975,
1.84,
1.84025,
1.8405,
1.84075,
1.841,
1.84125,
1.8415,
1.84175,
1.842,
1.84225,
1.8425,
1.84275,
1.843,
1.84325,
1.8435,
1.84375,
1.844,
1.84425,
1.8445,
1.84475,
1.845,
1.84525,
1.8455,
1.84575,
1.846,
1.84625,
1.8465,
1.84675,
1.847,
1.84725,
1.8475,
1.84775,
1.848,
1.84825,
1.8485,
1.84875,
1.849,
1.84925,
1.8495,
1.84975,
1.85,
1.85025,
1.8505,
1.85075,
1.851,
1.85125,
1.8515,
1.85175,
1.852,
1.85225,
1.8525,
1.85275,
1.853,
1.85325,
1.8535,
1.85375,
1.854,
1.85425,
1.8545,
1.85475,
1.855,
1.85525,
1.8555,
1.85575,
1.856,
1.85625,
1.8565,
1.85675,
1.857,
1.85725,
1.8575,
1.85775,
1.858,
1.85825,
1.8585,
1.85875,
1.859,
1.85925,
1.8595,
1.85975,
1.86,
1.86025,
1.8605,
1.86075,
1.861,
1.86125,
1.8615,
1.86175,
1.862,
1.86225,
1.8625,
1.86275,
1.863,
1.86325,
1.8635,
1.86375,
1.864,
1.86425,
1.8645,
1.86475,
1.865,
1.86525,
1.8655,
1.86575,
1.866,
1.86625,
1.8665,
1.86675,
1.867,
1.86725,
1.8675,
1.86775,
1.868,
1.86825,
1.8685,
1.86875,
1.869,
1.86925,
1.8695,
1.86975,
1.87,
1.87025,
1.8705,
1.87075,
1.871,
1.87125,
1.8715,
1.87175,
1.872,
1.87225,
1.8725,
1.87275,
1.873,
1.87325,
1.8735,
1.87375,
1.874,
1.87425,
1.8745,
1.87475,
1.875,
1.87525,
1.8755,
1.87575,
1.876,
1.87625,
1.8765,
1.87675,
1.877,
1.87725,
1.8775,
1.87775,
1.878,
1.87825,
1.8785,
1.87875,
1.879,
1.87925,
1.8795,
1.87975,
1.88,
1.88025,
1.8805,
1.88075,
1.881,
1.88125,
1.8815,
1.88175,
1.882,
1.88225,
1.8825,
1.88275,
1.883,
1.88325,
1.8835,
1.88375,
1.884,
1.88425,
1.8845,
1.88475,
1.885,
1.88525,
1.8855,
1.88575,
1.886,
1.88625,
1.8865,
1.88675,
1.887,
1.88725,
1.8875,
1.88775,
1.888,
1.88825,
1.8885,
1.88875,
1.889,
1.88925,
1.8895,
1.88975,
1.89,
1.89025,
1.8905,
1.89075,
1.891,
1.89125,
1.8915,
1.89175,
1.892,
1.89225,
1.8925,
1.89275,
1.893,
1.89325,
1.8935,
1.89375,
1.894,
1.89425,
1.8945,
1.89475,
1.895,
1.89525,
1.8955,
1.89575,
1.896,
1.89625,
1.8965,
1.89675,
1.897,
1.89725,
1.8975,
1.89775,
1.898,
1.89825,
1.8985,
1.89875,
1.899,
1.89925,
1.8995,
1.89975,
1.9,
1.90025,
1.9005,
1.90075,
1.901,
1.90125,
1.9015,
1.90175,
1.902,
1.90225,
1.9025,
1.90275,
1.903,
1.90325,
1.9035,
1.90375,
1.904,
1.90425,
1.9045,
1.90475,
1.905,
1.90525,
1.9055,
1.90575,
1.906,
1.90625,
1.9065,
1.90675,
1.907,
1.90725,
1.9075,
1.90775,
1.908,
1.90825,
1.9085,
1.90875,
1.909,
1.90925,
1.9095,
1.90975,
1.91,
1.91025,
1.9105,
1.91075,
1.911,
1.91125,
1.9115,
1.91175,
1.912,
1.91225,
1.9125,
1.91275,
1.913,
1.91325,
1.9135,
1.91375,
1.914,
1.91425,
1.9145,
1.91475,
1.915,
1.91525,
1.9155,
1.91575,
1.916,
1.91625,
1.9165,
1.91675,
1.917,
1.91725,
1.9175,
1.91775,
1.918,
1.91825,
1.9185,
1.91875,
1.919,
1.91925,
1.9195,
1.91975,
1.92,
1.92025,
1.9205,
1.92075,
1.921,
1.92125,
1.9215,
1.92175,
1.922,
1.92225,
1.9225,
1.92275,
1.923,
1.92325,
1.9235,
1.92375,
1.924,
1.92425,
1.9245,
1.92475,
1.925,
1.92525,
1.9255,
1.92575,
1.926,
1.92625,
1.9265,
1.92675,
1.927,
1.92725,
1.9275,
1.92775,
1.928,
1.92825,
1.9285,
1.92875,
1.929,
1.92925,
1.9295,
1.92975,
1.93,
1.93025,
1.9305,
1.93075,
1.931,
1.93125,
1.9315,
1.93175,
1.932,
1.93225,
1.9325,
1.93275,
1.933,
1.93325,
1.9335,
1.93375,
1.934,
1.93425,
1.9345,
1.93475,
1.935,
1.93525,
1.9355,
1.93575,
1.936,
1.93625,
1.9365,
1.93675,
1.937,
1.93725,
1.9375,
1.93775,
1.938,
1.93825,
1.9385,
1.93875,
1.939,
1.93925,
1.9395,
1.93975,
1.94,
1.94025,
1.9405,
1.94075,
1.941,
1.94125,
1.9415,
1.94175,
1.942,
1.94225,
1.9425,
1.94275,
1.943,
1.94325,
1.9435,
1.94375,
1.944,
1.94425,
1.9445,
1.94475,
1.945,
1.94525,
1.9455,
1.94575,
1.946,
1.94625,
1.9465,
1.94675,
1.947,
1.94725,
1.9475,
1.94775,
1.948,
1.94825,
1.9485,
1.94875,
1.949,
1.94925,
1.9495,
1.94975,
1.95,
1.95025,
1.9505,
1.95075,
1.951,
1.95125,
1.9515,
1.95175,
1.952,
1.95225,
1.9525,
1.95275,
1.953,
1.95325,
1.9535,
1.95375,
1.954,
1.95425,
1.9545,
1.95475,
1.955,
1.95525,
1.9555,
1.95575,
1.956,
1.95625,
1.9565,
1.95675,
1.957,
1.95725,
1.9575,
1.95775,
1.958,
1.95825,
1.9585,
1.95875,
1.959,
1.95925,
1.9595,
1.95975,
1.96,
1.96025,
1.9605,
1.96075,
1.961,
1.96125,
1.9615,
1.96175,
1.962,
1.96225,
1.9625,
1.96275,
1.963,
1.96325,
1.9635,
1.96375,
1.964,
1.96425,
1.9645,
1.96475,
1.965,
1.96525,
1.9655,
1.96575,
1.966,
1.96625,
1.9665,
1.96675,
1.967,
1.96725,
1.9675,
1.96775,
1.968,
1.96825,
1.9685,
1.96875,
1.969,
1.96925,
1.9695,
1.96975,
1.97,
1.97025,
1.9705,
1.97075,
1.971,
1.97125,
1.9715,
1.97175,
1.972,
1.97225,
1.9725,
1.97275,
1.973,
1.97325,
1.9735,
1.97375,
1.974,
1.97425,
1.9745,
1.97475,
1.975,
1.97525,
1.9755,
1.97575,
1.976,
1.97625,
1.9765,
1.97675,
1.977,
1.97725,
1.9775,
1.97775,
1.978,
1.97825,
1.9785,
1.97875,
1.979,
1.97925,
1.9795,
1.97975,
1.98,
1.98025,
1.9805,
1.98075,
1.981,
1.98125,
1.9815,
1.98175,
1.982,
1.98225,
1.9825,
1.98275,
1.983,
1.98325,
1.9835,
1.98375,
1.984,
1.98425,
1.9845,
1.98475,
1.985,
1.98525,
1.9855,
1.98575,
1.986,
1.98625,
1.9865,
1.98675,
1.987,
1.98725,
1.9875,
1.98775,
1.988,
1.98825,
1.9885,
1.98875,
1.989,
1.98925,
1.9895,
1.98975,
1.99,
1.99025,
1.9905,
1.99075,
1.991,
1.99125,
1.9915,
1.99175,
1.992,
1.99225,
1.9925,
1.99275,
1.993,
1.99325,
1.9935,
1.99375,
1.994,
1.99425,
1.9945,
1.99475,
1.995,
1.99525,
1.9955,
1.99575,
1.996,
1.99625,
1.9965,
1.99675,
1.997,
1.99725,
1.9975,
1.99775,
1.998,
1.99825,
1.9985,
1.99875,
1.999,
1.99925,
1.9995,
1.99975,
2,
2.00025,
2.0005,
2.00075,
2.001,
2.00125,
2.0015,
2.00175,
2.002,
2.00225,
2.0025,
2.00275,
2.003,
2.00325,
2.0035,
2.00375,
2.004,
2.00425,
2.0045,
2.00475,
2.005,
2.00525,
2.0055,
2.00575,
2.006,
2.00625,
2.0065,
2.00675,
2.007,
2.00725,
2.0075,
2.00775,
2.008,
2.00825,
2.0085,
2.00875,
2.009,
2.00925,
2.0095,
2.00975,
2.01,
2.01025,
2.0105,
2.01075,
2.011,
2.01125,
2.0115,
2.01175,
2.012,
2.01225,
2.0125,
2.01275,
2.013,
2.01325,
2.0135,
2.01375,
2.014,
2.01425,
2.0145,
2.01475,
2.015,
2.01525,
2.0155,
2.01575,
2.016,
2.01625,
2.0165,
2.01675,
2.017,
2.01725,
2.0175,
2.01775,
2.018,
2.01825,
2.0185,
2.01875,
2.019,
2.01925,
2.0195,
2.01975,
2.02,
2.02025,
2.0205,
2.02075,
2.021,
2.02125,
2.0215,
2.02175,
2.022,
2.02225,
2.0225,
2.02275,
2.023,
2.02325,
2.0235,
2.02375,
2.024,
2.02425,
2.0245,
2.02475,
2.025,
2.02525,
2.0255,
2.02575,
2.026,
2.02625,
2.0265,
2.02675,
2.027,
2.02725,
2.0275,
2.02775,
2.028,
2.02825,
2.0285,
2.02875,
2.029,
2.02925,
2.0295,
2.02975,
2.03,
2.03025,
2.0305,
2.03075,
2.031,
2.03125,
2.0315,
2.03175,
2.032,
2.03225,
2.0325,
2.03275,
2.033,
2.03325,
2.0335,
2.03375,
2.034,
2.03425,
2.0345,
2.03475,
2.035,
2.03525,
2.0355,
2.03575,
2.036,
2.03625,
2.0365,
2.03675,
2.037,
2.03725,
2.0375,
2.03775,
2.038,
2.03825,
2.0385,
2.03875,
2.039,
2.03925,
2.0395,
2.03975,
2.04,
2.04025,
2.0405,
2.04075,
2.041,
2.04125,
2.0415,
2.04175,
2.042,
2.04225,
2.0425,
2.04275,
2.043,
2.04325,
2.0435,
2.04375,
2.044,
2.04425,
2.0445,
2.04475,
2.045,
2.04525,
2.0455,
2.04575,
2.046,
2.04625,
2.0465,
2.04675,
2.047,
2.04725,
2.0475,
2.04775,
2.048,
2.04825,
2.0485,
2.04875,
2.049,
2.04925,
2.0495,
2.04975,
2.05,
2.05025,
2.0505,
2.05075,
2.051,
2.05125,
2.0515,
2.05175,
2.052,
2.05225,
2.0525,
2.05275,
2.053,
2.05325,
2.0535,
2.05375,
2.054,
2.05425,
2.0545,
2.05475,
2.055,
2.05525,
2.0555,
2.05575,
2.056,
2.05625,
2.0565,
2.05675,
2.057,
2.05725,
2.0575,
2.05775,
2.058,
2.05825,
2.0585,
2.05875,
2.059,
2.05925,
2.0595,
2.05975,
2.06,
2.06025,
2.0605,
2.06075,
2.061,
2.06125,
2.0615,
2.06175,
2.062,
2.06225,
2.0625,
2.06275,
2.063,
2.06325,
2.0635,
2.06375,
2.064,
2.06425,
2.0645,
2.06475,
2.065,
2.06525,
2.0655,
2.06575,
2.066,
2.06625,
2.0665,
2.06675,
2.067,
2.06725,
2.0675,
2.06775,
2.068,
2.06825,
2.0685,
2.06875,
2.069,
2.06925,
2.0695,
2.06975,
2.07,
2.07025,
2.0705,
2.07075,
2.071,
2.07125,
2.0715,
2.07175,
2.072,
2.07225,
2.0725,
2.07275,
2.073,
2.07325,
2.0735,
2.07375,
2.074,
2.07425,
2.0745,
2.07475,
2.075,
2.07525,
2.0755,
2.07575,
2.076,
2.07625,
2.0765,
2.07675,
2.077,
2.07725,
2.0775,
2.07775,
2.078,
2.07825,
2.0785,
2.07875,
2.079,
2.07925,
2.0795,
2.07975,
2.08,
2.08025,
2.0805,
2.08075,
2.081,
2.08125,
2.0815,
2.08175,
2.082,
2.08225,
2.0825,
2.08275,
2.083,
2.08325,
2.0835,
2.08375,
2.084,
2.08425,
2.0845,
2.08475,
2.085,
2.08525,
2.0855,
2.08575,
2.086,
2.08625,
2.0865,
2.08675,
2.087,
2.08725,
2.0875,
2.08775,
2.088,
2.08825,
2.0885,
2.08875,
2.089,
2.08925,
2.0895,
2.08975,
2.09,
2.09025,
2.0905,
2.09075,
2.091,
2.09125,
2.0915,
2.09175,
2.092,
2.09225,
2.0925,
2.09275,
2.093,
2.09325,
2.0935,
2.09375,
2.094,
2.09425,
2.0945,
2.09475,
2.095,
2.09525,
2.0955,
2.09575,
2.096,
2.09625,
2.0965,
2.09675,
2.097,
2.09725,
2.0975,
2.09775,
2.098,
2.09825,
2.0985,
2.09875,
2.099,
2.09925,
2.0995,
2.09975,
2.1,
2.10025,
2.1005,
2.10075,
2.101,
2.10125,
2.1015,
2.10175,
2.102,
2.10225,
2.1025,
2.10275,
2.103,
2.10325,
2.1035,
2.10375,
2.104,
2.10425,
2.1045,
2.10475,
2.105,
2.10525,
2.1055,
2.10575,
2.106,
2.10625,
2.1065,
2.10675,
2.107,
2.10725,
2.1075,
2.10775,
2.108,
2.10825,
2.1085,
2.10875,
2.109,
2.10925,
2.1095,
2.10975,
2.11,
2.11025,
2.1105,
2.11075,
2.111,
2.11125,
2.1115,
2.11175,
2.112,
2.11225,
2.1125,
2.11275,
2.113,
2.11325,
2.1135,
2.11375,
2.114,
2.11425,
2.1145,
2.11475,
2.115,
2.11525,
2.1155,
2.11575,
2.116,
2.11625,
2.1165,
2.11675,
2.117,
2.11725,
2.1175,
2.11775,
2.118,
2.11825,
2.1185,
2.11875,
2.119,
2.11925,
2.1195,
2.11975,
2.12,
2.12025,
2.1205,
2.12075,
2.121,
2.12125,
2.1215,
2.12175,
2.122,
2.12225,
2.1225,
2.12275,
2.123,
2.12325,
2.1235,
2.12375,
2.124,
2.12425,
2.1245,
2.12475,
2.125,
2.12525,
2.1255,
2.12575,
2.126,
2.12625,
2.1265,
2.12675,
2.127,
2.12725,
2.1275,
2.12775,
2.128,
2.12825,
2.1285,
2.12875,
2.129,
2.12925,
2.1295,
2.12975,
2.13,
2.13025,
2.1305,
2.13075,
2.131,
2.13125,
2.1315,
2.13175,
2.132,
2.13225,
2.1325,
2.13275,
2.133,
2.13325,
2.1335,
2.13375,
2.134,
2.13425,
2.1345,
2.13475,
2.135,
2.13525,
2.1355,
2.13575,
2.136,
2.13625,
2.1365,
2.13675,
2.137,
2.13725,
2.1375,
2.13775,
2.138,
2.13825,
2.1385,
2.13875,
2.139,
2.13925,
2.1395,
2.13975,
2.14,
2.14025,
2.1405,
2.14075,
2.141,
2.14125,
2.1415,
2.14175,
2.142,
2.14225,
2.1425,
2.14275,
2.143,
2.14325,
2.1435,
2.14375,
2.144,
2.14425,
2.1445,
2.14475,
2.145,
2.14525,
2.1455,
2.14575,
2.146,
2.14625,
2.1465,
2.14675,
2.147,
2.14725,
2.1475,
2.14775,
2.148,
2.14825,
2.1485,
2.14875,
2.149,
2.14925,
2.1495,
2.14975,
2.15,
2.15025,
2.1505,
2.15075,
2.151,
2.15125,
2.1515,
2.15175,
2.152,
2.15225,
2.1525,
2.15275,
2.153,
2.15325,
2.1535,
2.15375,
2.154,
2.15425,
2.1545,
2.15475,
2.155,
2.15525,
2.1555,
2.15575,
2.156,
2.15625,
2.1565,
2.15675,
2.157,
2.15725,
2.1575,
2.15775,
2.158,
2.15825,
2.1585,
2.15875,
2.159,
2.15925,
2.1595,
2.15975,
2.16,
2.16025,
2.1605,
2.16075,
2.161,
2.16125,
2.1615,
2.16175,
2.162,
2.16225,
2.1625,
2.16275,
2.163,
2.16325,
2.1635,
2.16375,
2.164,
2.16425,
2.1645,
2.16475,
2.165,
2.16525,
2.1655,
2.16575,
2.166,
2.16625,
2.1665,
2.16675,
2.167,
2.16725,
2.1675,
2.16775,
2.168,
2.16825,
2.1685,
2.16875,
2.169,
2.16925,
2.1695,
2.16975,
2.17,
2.17025,
2.1705,
2.17075,
2.171,
2.17125,
2.1715,
2.17175,
2.172,
2.17225,
2.1725,
2.17275,
2.173,
2.17325,
2.1735,
2.17375,
2.174,
2.17425,
2.1745,
2.17475,
2.175,
2.17525,
2.1755,
2.17575,
2.176,
2.17625,
2.1765,
2.17675,
2.177,
2.17725,
2.1775,
2.17775,
2.178,
2.17825,
2.1785,
2.17875,
2.179,
2.17925,
2.1795,
2.17975,
2.18,
2.18025,
2.1805,
2.18075,
2.181,
2.18125,
2.1815,
2.18175,
2.182,
2.18225,
2.1825,
2.18275,
2.183,
2.18325,
2.1835,
2.18375,
2.184,
2.18425,
2.1845,
2.18475,
2.185,
2.18525,
2.1855,
2.18575,
2.186,
2.18625,
2.1865,
2.18675,
2.187,
2.18725,
2.1875,
2.18775,
2.188,
2.18825,
2.1885,
2.18875,
2.189,
2.18925,
2.1895,
2.18975,
2.19,
2.19025,
2.1905,
2.19075,
2.191,
2.19125,
2.1915,
2.19175,
2.192,
2.19225,
2.1925,
2.19275,
2.193,
2.19325,
2.1935,
2.19375,
2.194,
2.19425,
2.1945,
2.19475,
2.195,
2.19525,
2.1955,
2.19575,
2.196,
2.19625,
2.1965,
2.19675,
2.197,
2.19725,
2.1975,
2.19775,
2.198,
2.19825,
2.1985,
2.19875,
2.199,
2.19925,
2.1995,
2.19975,
2.2,
2.20025,
2.2005,
2.20075,
2.201,
2.20125,
2.2015,
2.20175,
2.202,
2.20225,
2.2025,
2.20275,
2.203,
2.20325,
2.2035,
2.20375,
2.204,
2.20425,
2.2045,
2.20475,
2.205,
2.20525,
2.2055,
2.20575,
2.206,
2.20625,
2.2065,
2.20675,
2.207,
2.20725,
2.2075,
2.20775,
2.208,
2.20825,
2.2085,
2.20875,
2.209,
2.20925,
2.2095,
2.20975,
2.21,
2.21025,
2.2105,
2.21075,
2.211,
2.21125,
2.2115,
2.21175,
2.212,
2.21225,
2.2125,
2.21275,
2.213,
2.21325,
2.2135,
2.21375,
2.214,
2.21425,
2.2145,
2.21475,
2.215,
2.21525,
2.2155,
2.21575,
2.216,
2.21625,
2.2165,
2.21675,
2.217,
2.21725,
2.2175,
2.21775,
2.218,
2.21825,
2.2185,
2.21875,
2.219,
2.21925,
2.2195,
2.21975,
2.22,
2.22025,
2.2205,
2.22075,
2.221,
2.22125,
2.2215,
2.22175,
2.222,
2.22225,
2.2225,
2.22275,
2.223,
2.22325,
2.2235,
2.22375,
2.224,
2.22425,
2.2245,
2.22475,
2.225,
2.22525,
2.2255,
2.22575,
2.226,
2.22625,
2.2265,
2.22675,
2.227,
2.22725,
2.2275,
2.22775,
2.228,
2.22825,
2.2285,
2.22875,
2.229,
2.22925,
2.2295,
2.22975,
2.23,
2.23025,
2.2305,
2.23075,
2.231,
2.23125,
2.2315,
2.23175,
2.232,
2.23225,
2.2325,
2.23275,
2.233,
2.23325,
2.2335,
2.23375,
2.234,
2.23425,
2.2345,
2.23475,
2.235,
2.23525,
2.2355,
2.23575,
2.236,
2.23625,
2.2365,
2.23675,
2.237,
2.23725,
2.2375,
2.23775,
2.238,
2.23825,
2.2385,
2.23875,
2.239,
2.23925,
2.2395,
2.23975,
2.24,
2.24025,
2.2405,
2.24075,
2.241,
2.24125,
2.2415,
2.24175,
2.242,
2.24225,
2.2425,
2.24275,
2.243,
2.24325,
2.2435,
2.24375,
2.244,
2.24425,
2.2445,
2.24475,
2.245,
2.24525,
2.2455,
2.24575,
2.246,
2.24625,
2.2465,
2.24675,
2.247,
2.24725,
2.2475,
2.24775,
2.248,
2.24825,
2.2485,
2.24875,
2.249,
2.24925,
2.2495,
2.24975,
2.25,
2.25025,
2.2505,
2.25075,
2.251,
2.25125,
2.2515,
2.25175,
2.252,
2.25225,
2.2525,
2.25275,
2.253,
2.25325,
2.2535,
2.25375,
2.254,
2.25425,
2.2545,
2.25475,
2.255,
2.25525,
2.2555,
2.25575,
2.256,
2.25625,
2.2565,
2.25675,
2.257,
2.25725,
2.2575,
2.25775,
2.258,
2.25825,
2.2585,
2.25875,
2.259,
2.25925,
2.2595,
2.25975,
2.26,
2.26025,
2.2605,
2.26075,
2.261,
2.26125,
2.2615,
2.26175,
2.262,
2.26225,
2.2625,
2.26275,
2.263,
2.26325,
2.2635,
2.26375,
2.264,
2.26425,
2.2645,
2.26475,
2.265,
2.26525,
2.2655,
2.26575,
2.266,
2.26625,
2.2665,
2.26675,
2.267,
2.26725,
2.2675,
2.26775,
2.268,
2.26825,
2.2685,
2.26875,
2.269,
2.26925,
2.2695,
2.26975,
2.27,
2.27025,
2.2705,
2.27075,
2.271,
2.27125,
2.2715,
2.27175,
2.272,
2.27225,
2.2725,
2.27275,
2.273,
2.27325,
2.2735,
2.27375,
2.274,
2.27425,
2.2745,
2.27475,
2.275,
2.27525,
2.2755,
2.27575,
2.276,
2.27625,
2.2765,
2.27675,
2.277,
2.27725,
2.2775,
2.27775,
2.278,
2.27825,
2.2785,
2.27875,
2.279,
2.27925,
2.2795,
2.27975,
2.28,
2.28025,
2.2805,
2.28075,
2.281,
2.28125,
2.2815,
2.28175,
2.282,
2.28225,
2.2825,
2.28275,
2.283,
2.28325,
2.2835,
2.28375,
2.284,
2.28425,
2.2845,
2.28475,
2.285,
2.28525,
2.2855,
2.28575,
2.286,
2.28625,
2.2865,
2.28675,
2.287,
2.28725,
2.2875,
2.28775,
2.288,
2.28825,
2.2885,
2.28875,
2.289,
2.28925,
2.2895,
2.28975,
2.29,
2.29025,
2.2905,
2.29075,
2.291,
2.29125,
2.2915,
2.29175,
2.292,
2.29225,
2.2925,
2.29275,
2.293,
2.29325,
2.2935,
2.29375,
2.294,
2.29425,
2.2945,
2.29475,
2.295,
2.29525,
2.2955,
2.29575,
2.296,
2.29625,
2.2965,
2.29675,
2.297,
2.29725,
2.2975,
2.29775,
2.298,
2.29825,
2.2985,
2.29875,
2.299,
2.29925,
2.2995,
2.29975,
2.3,
2.30025,
2.3005,
2.30075,
2.301,
2.30125,
2.3015,
2.30175,
2.302,
2.30225,
2.3025,
2.30275,
2.303,
2.30325,
2.3035,
2.30375,
2.304,
2.30425,
2.3045,
2.30475,
2.305,
2.30525,
2.3055,
2.30575,
2.306,
2.30625,
2.3065,
2.30675,
2.307,
2.30725,
2.3075,
2.30775,
2.308,
2.30825,
2.3085,
2.30875,
2.309,
2.30925,
2.3095,
2.30975,
2.31,
2.31025,
2.3105,
2.31075,
2.311,
2.31125,
2.3115,
2.31175,
2.312,
2.31225,
2.3125,
2.31275,
2.313,
2.31325,
2.3135,
2.31375,
2.314,
2.31425,
2.3145,
2.31475,
2.315,
2.31525,
2.3155,
2.31575,
2.316,
2.31625,
2.3165,
2.31675,
2.317,
2.31725,
2.3175,
2.31775,
2.318,
2.31825,
2.3185,
2.31875,
2.319,
2.31925,
2.3195,
2.31975,
2.32,
2.32025,
2.3205,
2.32075,
2.321,
2.32125,
2.3215,
2.32175,
2.322,
2.32225,
2.3225,
2.32275,
2.323,
2.32325,
2.3235,
2.32375,
2.324,
2.32425,
2.3245,
2.32475,
2.325,
2.32525,
2.3255,
2.32575,
2.326,
2.32625,
2.3265,
2.32675,
2.327,
2.32725,
2.3275,
2.32775,
2.328,
2.32825,
2.3285,
2.32875,
2.329,
2.32925,
2.3295,
2.32975,
2.33,
2.33025,
2.3305,
2.33075,
2.331,
2.33125,
2.3315,
2.33175,
2.332,
2.33225,
2.3325,
2.33275,
2.333,
2.33325,
2.3335,
2.33375,
2.334,
2.33425,
2.3345,
2.33475,
2.335,
2.33525,
2.3355,
2.33575,
2.336,
2.33625,
2.3365,
2.33675,
2.337,
2.33725,
2.3375,
2.33775,
2.338,
2.33825,
2.3385,
2.33875,
2.339,
2.33925,
2.3395,
2.33975,
2.34,
2.34025,
2.3405,
2.34075,
2.341,
2.34125,
2.3415,
2.34175,
2.342,
2.34225,
2.3425,
2.34275,
2.343,
2.34325,
2.3435,
2.34375,
2.344,
2.34425,
2.3445,
2.34475,
2.345,
2.34525,
2.3455,
2.34575,
2.346,
2.34625,
2.3465,
2.34675,
2.347,
2.34725,
2.3475,
2.34775,
2.348,
2.34825,
2.3485,
2.34875,
2.349,
2.34925,
2.3495,
2.34975,
2.35,
2.35025,
2.3505,
2.35075,
2.351,
2.35125,
2.3515,
2.35175,
2.352,
2.35225,
2.3525,
2.35275,
2.353,
2.35325,
2.3535,
2.35375,
2.354,
2.35425,
2.3545,
2.35475,
2.355,
2.35525,
2.3555,
2.35575,
2.356,
2.35625,
2.3565,
2.35675,
2.357,
2.35725,
2.3575,
2.35775,
2.358,
2.35825,
2.3585,
2.35875,
2.359,
2.35925,
2.3595,
2.35975,
2.36,
2.36025,
2.3605,
2.36075,
2.361,
2.36125,
2.3615,
2.36175,
2.362,
2.36225,
2.3625,
2.36275,
2.363,
2.36325,
2.3635,
2.36375,
2.364,
2.36425,
2.3645,
2.36475,
2.365,
2.36525,
2.3655,
2.36575,
2.366,
2.36625,
2.3665,
2.36675,
2.367,
2.36725,
2.3675,
2.36775,
2.368,
2.36825,
2.3685,
2.36875,
2.369,
2.36925,
2.3695,
2.36975,
2.37,
2.37025,
2.3705,
2.37075,
2.371,
2.37125,
2.3715,
2.37175,
2.372,
2.37225,
2.3725,
2.37275,
2.373,
2.37325,
2.3735,
2.37375,
2.374,
2.37425,
2.3745,
2.37475,
2.375,
2.37525,
2.3755,
2.37575,
2.376,
2.37625,
2.3765,
2.37675,
2.377,
2.37725,
2.3775,
2.37775,
2.378,
2.37825,
2.3785,
2.37875,
2.379,
2.37925,
2.3795,
2.37975,
2.38,
2.38025,
2.3805,
2.38075,
2.381,
2.38125,
2.3815,
2.38175,
2.382,
2.38225,
2.3825,
2.38275,
2.383,
2.38325,
2.3835,
2.38375,
2.384,
2.38425,
2.3845,
2.38475,
2.385,
2.38525,
2.3855,
2.38575,
2.386,
2.38625,
2.3865,
2.38675,
2.387,
2.38725,
2.3875,
2.38775,
2.388,
2.38825,
2.3885,
2.38875,
2.389,
2.38925,
2.3895,
2.38975,
2.39,
2.39025,
2.3905,
2.39075,
2.391,
2.39125,
2.3915,
2.39175,
2.392,
2.39225,
2.3925,
2.39275,
2.393,
2.39325,
2.3935,
2.39375,
2.394,
2.39425,
2.3945,
2.39475,
2.395,
2.39525,
2.3955,
2.39575,
2.396,
2.39625,
2.3965,
2.39675,
2.397,
2.39725,
2.3975,
2.39775,
2.398,
2.39825,
2.3985,
2.39875,
2.399,
2.39925,
2.3995,
2.39975,
2.4,
2.40025,
2.4005,
2.40075,
2.401,
2.40125,
2.4015,
2.40175,
2.402,
2.40225,
2.4025,
2.40275,
2.403,
2.40325,
2.4035,
2.40375,
2.404,
2.40425,
2.4045,
2.40475,
2.405,
2.40525,
2.4055,
2.40575,
2.406,
2.40625,
2.4065,
2.40675,
2.407,
2.40725,
2.4075,
2.40775,
2.408,
2.40825,
2.4085,
2.40875,
2.409,
2.40925,
2.4095,
2.40975,
2.41,
2.41025,
2.4105,
2.41075,
2.411,
2.41125,
2.4115,
2.41175,
2.412,
2.41225,
2.4125,
2.41275,
2.413,
2.41325,
2.4135,
2.41375,
2.414,
2.41425,
2.4145,
2.41475,
2.415,
2.41525,
2.4155,
2.41575,
2.416,
2.41625,
2.4165,
2.41675,
2.417,
2.41725,
2.4175,
2.41775,
2.418,
2.41825,
2.4185,
2.41875,
2.419,
2.41925,
2.4195,
2.41975,
2.42,
2.42025,
2.4205,
2.42075,
2.421,
2.42125,
2.4215,
2.42175,
2.422,
2.42225,
2.4225,
2.42275,
2.423,
2.42325,
2.4235,
2.42375,
2.424,
2.42425,
2.4245,
2.42475,
2.425,
2.42525,
2.4255,
2.42575,
2.426,
2.42625,
2.4265,
2.42675,
2.427,
2.42725,
2.4275,
2.42775,
2.428,
2.42825,
2.4285,
2.42875,
2.429,
2.42925,
2.4295,
2.42975,
2.43,
2.43025,
2.4305,
2.43075,
2.431,
2.43125,
2.4315,
2.43175,
2.432,
2.43225,
2.4325,
2.43275,
2.433,
2.43325,
2.4335,
2.43375,
2.434,
2.43425,
2.4345,
2.43475,
2.435,
2.43525,
2.4355,
2.43575,
2.436,
2.43625,
2.4365,
2.43675,
2.437,
2.43725,
2.4375,
2.43775,
2.438,
2.43825,
2.4385,
2.43875,
2.439,
2.43925,
2.4395,
2.43975,
2.44,
2.44025,
2.4405,
2.44075,
2.441,
2.44125,
2.4415,
2.44175,
2.442,
2.44225,
2.4425,
2.44275,
2.443,
2.44325,
2.4435,
2.44375,
2.444,
2.44425,
2.4445,
2.44475,
2.445,
2.44525,
2.4455,
2.44575,
2.446,
2.44625,
2.4465,
2.44675,
2.447,
2.44725,
2.4475,
2.44775,
2.448,
2.44825,
2.4485,
2.44875,
2.449,
2.44925,
2.4495,
2.44975,
2.45,
2.45025,
2.4505,
2.45075,
2.451,
2.45125,
2.4515,
2.45175,
2.452,
2.45225,
2.4525,
2.45275,
2.453,
2.45325,
2.4535,
2.45375,
2.454,
2.45425,
2.4545,
2.45475,
2.455,
2.45525,
2.4555,
2.45575,
2.456,
2.45625,
2.4565,
2.45675,
2.457,
2.45725,
2.4575,
2.45775,
2.458,
2.45825,
2.4585,
2.45875,
2.459,
2.45925,
2.4595,
2.45975,
2.46,
2.46025,
2.4605,
2.46075,
2.461,
2.46125,
2.4615,
2.46175,
2.462,
2.46225,
2.4625,
2.46275,
2.463,
2.46325,
2.4635,
2.46375,
2.464,
2.46425,
2.4645,
2.46475,
2.465,
2.46525,
2.4655,
2.46575,
2.466,
2.46625,
2.4665,
2.46675,
2.467,
2.46725,
2.4675,
2.46775,
2.468,
2.46825,
2.4685,
2.46875,
2.469,
2.46925,
2.4695,
2.46975,
2.47,
2.47025,
2.4705,
2.47075,
2.471,
2.47125,
2.4715,
2.47175,
2.472,
2.47225,
2.4725,
2.47275,
2.473,
2.47325,
2.4735,
2.47375,
2.474,
2.47425,
2.4745,
2.47475,
2.475,
2.47525,
2.4755,
2.47575,
2.476,
2.47625,
2.4765,
2.47675,
2.477,
2.47725,
2.4775,
2.47775,
2.478,
2.47825,
2.4785,
2.47875,
2.479,
2.47925,
2.4795,
2.47975,
2.48,
2.48025,
2.4805,
2.48075,
2.481,
2.48125,
2.4815,
2.48175,
2.482,
2.48225,
2.4825,
2.48275,
2.483,
2.48325,
2.4835,
2.48375,
2.484,
2.48425,
2.4845,
2.48475,
2.485,
2.48525,
2.4855,
2.48575,
2.486,
2.48625,
2.4865,
2.48675,
2.487,
2.48725,
2.4875,
2.48775,
2.488,
2.48825,
2.4885,
2.48875,
2.489,
2.48925,
2.4895,
2.48975,
2.49,
2.49025,
2.4905,
2.49075,
2.491,
2.49125,
2.4915,
2.49175,
2.492,
2.49225,
2.4925,
2.49275,
2.493,
2.49325,
2.4935,
2.49375,
2.494,
2.49425,
2.4945,
2.49475,
2.495,
2.49525,
2.4955,
2.49575,
2.496,
2.49625,
2.4965,
2.49675,
2.497,
2.49725,
2.4975,
2.49775,
2.498,
2.49825,
2.4985,
2.49875,
2.499,
2.49925,
2.4995,
2.49975,
2.5,
2.50025,
2.5005,
2.50075,
2.501,
2.50125,
2.5015,
2.50175,
2.502,
2.50225,
2.5025,
2.50275,
2.503,
2.50325,
2.5035,
2.50375,
2.504,
2.50425,
2.5045,
2.50475,
2.505,
2.50525,
2.5055,
2.50575,
2.506,
2.50625,
2.5065,
2.50675,
2.507,
2.50725,
2.5075,
2.50775,
2.508,
2.50825,
2.5085,
2.50875,
2.509,
2.50925,
2.5095,
2.50975,
2.51,
2.51025,
2.5105,
2.51075,
2.511,
2.51125,
2.5115,
2.51175,
2.512,
2.51225,
2.5125,
2.51275,
2.513,
2.51325,
2.5135,
2.51375,
2.514,
2.51425,
2.5145,
2.51475,
2.515,
2.51525,
2.5155,
2.51575,
2.516,
2.51625,
2.5165,
2.51675,
2.517,
2.51725,
2.5175,
2.51775,
2.518,
2.51825,
2.5185,
2.51875,
2.519,
2.51925,
2.5195,
2.51975,
2.52,
2.52025,
2.5205,
2.52075,
2.521,
2.52125,
2.5215,
2.52175,
2.522,
2.52225,
2.5225,
2.52275,
2.523,
2.52325,
2.5235,
2.52375,
2.524,
2.52425,
2.5245,
2.52475,
2.525,
2.52525,
2.5255,
2.52575,
2.526,
2.52625,
2.5265,
2.52675,
2.527,
2.52725,
2.5275,
2.52775,
2.528,
2.52825,
2.5285,
2.52875,
2.529,
2.52925,
2.5295,
2.52975,
2.53,
2.53025,
2.5305,
2.53075,
2.531,
2.53125,
2.5315,
2.53175,
2.532,
2.53225,
2.5325,
2.53275,
2.533,
2.53325,
2.5335,
2.53375,
2.534,
2.53425,
2.5345,
2.53475,
2.535,
2.53525,
2.5355,
2.53575,
2.536,
2.53625,
2.5365,
2.53675,
2.537,
2.53725,
2.5375,
2.53775,
2.538,
2.53825,
2.5385,
2.53875,
2.539,
2.53925,
2.5395,
2.53975,
2.54,
2.54025,
2.5405,
2.54075,
2.541,
2.54125,
2.5415,
2.54175,
2.542,
2.54225,
2.5425,
2.54275,
2.543,
2.54325,
2.5435,
2.54375,
2.544,
2.54425,
2.5445,
2.54475,
2.545,
2.54525,
2.5455,
2.54575,
2.546,
2.54625,
2.5465,
2.54675,
2.547,
2.54725,
2.5475,
2.54775,
2.548,
2.54825,
2.5485,
2.54875,
2.549,
2.54925,
2.5495,
2.54975,
2.55,
2.55025,
2.5505,
2.55075,
2.551,
2.55125,
2.5515,
2.55175,
2.552,
2.55225,
2.5525,
2.55275,
2.553,
2.55325,
2.5535,
2.55375,
2.554,
2.55425,
2.5545,
2.55475,
2.555,
2.55525,
2.5555,
2.55575,
2.556,
2.55625,
2.5565,
2.55675,
2.557,
2.55725,
2.5575,
2.55775,
2.558,
2.55825,
2.5585,
2.55875,
2.559,
2.55925,
2.5595,
2.55975,
2.56,
2.56025,
2.5605,
2.56075,
2.561,
2.56125,
2.5615,
2.56175,
2.562,
2.56225,
2.5625,
2.56275,
2.563,
2.56325,
2.5635,
2.56375,
2.564,
2.56425,
2.5645,
2.56475,
2.565,
2.56525,
2.5655,
2.56575,
2.566,
2.56625,
2.5665,
2.56675,
2.567,
2.56725,
2.5675,
2.56775,
2.568,
2.56825,
2.5685,
2.56875,
2.569,
2.56925,
2.5695,
2.56975,
2.57,
2.57025,
2.5705,
2.57075,
2.571,
2.57125,
2.5715,
2.57175,
2.572,
2.57225,
2.5725,
2.57275,
2.573,
2.57325,
2.5735,
2.57375,
2.574,
2.57425,
2.5745,
2.57475,
2.575,
2.57525,
2.5755,
2.57575,
2.576,
2.57625,
2.5765,
2.57675,
2.577,
2.57725,
2.5775,
2.57775,
2.578,
2.57825,
2.5785,
2.57875,
2.579,
2.57925,
2.5795,
2.57975,
2.58,
2.58025,
2.5805,
2.58075,
2.581,
2.58125,
2.5815,
2.58175,
2.582,
2.58225,
2.5825,
2.58275,
2.583,
2.58325,
2.5835,
2.58375,
2.584,
2.58425,
2.5845,
2.58475,
2.585,
2.58525,
2.5855,
2.58575,
2.586,
2.58625,
2.5865,
2.58675,
2.587,
2.58725,
2.5875,
2.58775,
2.588,
2.58825,
2.5885,
2.58875,
2.589,
2.58925,
2.5895,
2.58975,
2.59,
2.59025,
2.5905,
2.59075,
2.591,
2.59125,
2.5915,
2.59175,
2.592,
2.59225,
2.5925,
2.59275,
2.593,
2.59325,
2.5935,
2.59375,
2.594,
2.59425,
2.5945,
2.59475,
2.595,
2.59525,
2.5955,
2.59575,
2.596,
2.59625,
2.5965,
2.59675,
2.597,
2.59725,
2.5975,
2.59775,
2.598,
2.59825,
2.5985,
2.59875,
2.599,
2.59925,
2.5995,
2.59975,
2.6,
2.60025,
2.6005,
2.60075,
2.601,
2.60125,
2.6015,
2.60175,
2.602,
2.60225,
2.6025,
2.60275,
2.603,
2.60325,
2.6035,
2.60375,
2.604,
2.60425,
2.6045,
2.60475,
2.605,
2.60525,
2.6055,
2.60575,
2.606,
2.60625,
2.6065,
2.60675,
2.607,
2.60725,
2.6075,
2.60775,
2.608,
2.60825,
2.6085,
2.60875,
2.609,
2.60925,
2.6095,
2.60975,
2.61,
2.61025,
2.6105,
2.61075,
2.611,
2.61125,
2.6115,
2.61175,
2.612,
2.61225,
2.6125,
2.61275,
2.613,
2.61325,
2.6135,
2.61375,
2.614,
2.61425,
2.6145,
2.61475,
2.615,
2.61525,
2.6155,
2.61575,
2.616,
2.61625,
2.6165,
2.61675,
2.617,
2.61725,
2.6175,
2.61775,
2.618,
2.61825,
2.6185,
2.61875,
2.619,
2.61925,
2.6195,
2.61975,
2.62,
2.62025,
2.6205,
2.62075,
2.621,
2.62125,
2.6215,
2.62175,
2.622,
2.62225,
2.6225,
2.62275,
2.623,
2.62325,
2.6235,
2.62375,
2.624,
2.62425,
2.6245,
2.62475,
2.625,
2.62525,
2.6255,
2.62575,
2.626,
2.62625,
2.6265,
2.62675,
2.627,
2.62725,
2.6275,
2.62775,
2.628,
2.62825,
2.6285,
2.62875,
2.629,
2.62925,
2.6295,
2.62975,
2.63,
2.63025,
2.6305,
2.63075,
2.631,
2.63125,
2.6315,
2.63175,
2.632,
2.63225,
2.6325,
2.63275,
2.633,
2.63325,
2.6335,
2.63375,
2.634,
2.63425,
2.6345,
2.63475,
2.635,
2.63525,
2.6355,
2.63575,
2.636,
2.63625,
2.6365,
2.63675,
2.637,
2.63725,
2.6375,
2.63775,
2.638,
2.63825,
2.6385,
2.63875,
2.639,
2.63925,
2.6395,
2.63975,
2.64,
2.64025,
2.6405,
2.64075,
2.641,
2.64125,
2.6415,
2.64175,
2.642,
2.64225,
2.6425,
2.64275,
2.643,
2.64325,
2.6435,
2.64375,
2.644,
2.64425,
2.6445,
2.64475,
2.645,
2.64525,
2.6455,
2.64575,
2.646,
2.64625,
2.6465,
2.64675,
2.647,
2.64725,
2.6475,
2.64775,
2.648,
2.64825,
2.6485,
2.64875,
2.649,
2.64925,
2.6495,
2.64975,
2.65,
2.65025,
2.6505,
2.65075,
2.651,
2.65125,
2.6515,
2.65175,
2.652,
2.65225,
2.6525,
2.65275,
2.653,
2.65325,
2.6535,
2.65375,
2.654,
2.65425,
2.6545,
2.65475,
2.655,
2.65525,
2.6555,
2.65575,
2.656,
2.65625,
2.6565,
2.65675,
2.657,
2.65725,
2.6575,
2.65775,
2.658,
2.65825,
2.6585,
2.65875,
2.659,
2.65925,
2.6595,
2.65975,
2.66,
2.66025,
2.6605,
2.66075,
2.661,
2.66125,
2.6615,
2.66175,
2.662,
2.66225,
2.6625,
2.66275,
2.663,
2.66325,
2.6635,
2.66375,
2.664,
2.66425,
2.6645,
2.66475,
2.665,
2.66525,
2.6655,
2.66575,
2.666,
2.66625,
2.6665,
2.66675,
2.667,
2.66725,
2.6675,
2.66775,
2.668,
2.66825,
2.6685,
2.66875,
2.669,
2.66925,
2.6695,
2.66975,
2.67,
2.67025,
2.6705,
2.67075,
2.671,
2.67125,
2.6715,
2.67175,
2.672,
2.67225,
2.6725,
2.67275,
2.673,
2.67325,
2.6735,
2.67375,
2.674,
2.67425,
2.6745,
2.67475,
2.675,
2.67525,
2.6755,
2.67575,
2.676,
2.67625,
2.6765,
2.67675,
2.677,
2.67725,
2.6775,
2.67775,
2.678,
2.67825,
2.6785,
2.67875,
2.679,
2.67925,
2.6795,
2.67975,
2.68,
2.68025,
2.6805,
2.68075,
2.681,
2.68125,
2.6815,
2.68175,
2.682,
2.68225,
2.6825,
2.68275,
2.683,
2.68325,
2.6835,
2.68375,
2.684,
2.68425,
2.6845,
2.68475,
2.685,
2.68525,
2.6855,
2.68575,
2.686,
2.68625,
2.6865,
2.68675,
2.687,
2.68725,
2.6875,
2.68775,
2.688,
2.68825,
2.6885,
2.68875,
2.689,
2.68925,
2.6895,
2.68975,
2.69,
2.69025,
2.6905,
2.69075,
2.691,
2.69125,
2.6915,
2.69175,
2.692,
2.69225,
2.6925,
2.69275,
2.693,
2.69325,
2.6935,
2.69375,
2.694,
2.69425,
2.6945,
2.69475,
2.695,
2.69525,
2.6955,
2.69575,
2.696,
2.69625,
2.6965,
2.69675,
2.697,
2.69725,
2.6975,
2.69775,
2.698,
2.69825,
2.6985,
2.69875,
2.699,
2.69925,
2.6995,
2.69975,
2.7,
2.70025,
2.7005,
2.70075,
2.701,
2.70125,
2.7015,
2.70175,
2.702,
2.70225,
2.7025,
2.70275,
2.703,
2.70325,
2.7035,
2.70375,
2.704,
2.70425,
2.7045,
2.70475,
2.705,
2.70525,
2.7055,
2.70575,
2.706,
2.70625,
2.7065,
2.70675,
2.707,
2.70725,
2.7075,
2.70775,
2.708,
2.70825,
2.7085,
2.70875,
2.709,
2.70925,
2.7095,
2.70975,
2.71,
2.71025,
2.7105,
2.71075,
2.711,
2.71125,
2.7115,
2.71175,
2.712,
2.71225,
2.7125,
2.71275,
2.713,
2.71325,
2.7135,
2.71375,
2.714,
2.71425,
2.7145,
2.71475,
2.715,
2.71525,
2.7155,
2.71575,
2.716,
2.71625,
2.7165,
2.71675,
2.717,
2.71725,
2.7175,
2.71775,
2.718,
2.71825,
2.7185,
2.71875,
2.719,
2.71925,
2.7195,
2.71975,
2.72,
2.72025,
2.7205,
2.72075,
2.721,
2.72125,
2.7215,
2.72175,
2.722,
2.72225,
2.7225,
2.72275,
2.723,
2.72325,
2.7235,
2.72375,
2.724,
2.72425,
2.7245,
2.72475,
2.725,
2.72525,
2.7255,
2.72575,
2.726,
2.72625,
2.7265,
2.72675,
2.727,
2.72725,
2.7275,
2.72775,
2.728,
2.72825,
2.7285,
2.72875,
2.729,
2.72925,
2.7295,
2.72975,
2.73,
2.73025,
2.7305,
2.73075,
2.731,
2.73125,
2.7315,
2.73175,
2.732,
2.73225,
2.7325,
2.73275,
2.733,
2.73325,
2.7335,
2.73375,
2.734,
2.73425,
2.7345,
2.73475,
2.735,
2.73525,
2.7355,
2.73575,
2.736,
2.73625,
2.7365,
2.73675,
2.737,
2.73725,
2.7375,
2.73775,
2.738,
2.73825,
2.7385,
2.73875,
2.739,
2.73925,
2.7395,
2.73975,
2.74,
2.74025,
2.7405,
2.74075,
2.741,
2.74125,
2.7415,
2.74175,
2.742,
2.74225,
2.7425,
2.74275,
2.743,
2.74325,
2.7435,
2.74375,
2.744,
2.74425,
2.7445,
2.74475,
2.745,
2.74525,
2.7455,
2.74575,
2.746,
2.74625,
2.7465,
2.74675,
2.747,
2.74725,
2.7475,
2.74775,
2.748,
2.74825,
2.7485,
2.74875,
2.749,
2.74925,
2.7495,
2.74975,
2.75,
2.75025,
2.7505,
2.75075,
2.751,
2.75125,
2.7515,
2.75175,
2.752,
2.75225,
2.7525,
2.75275,
2.753,
2.75325,
2.7535,
2.75375,
2.754,
2.75425,
2.7545,
2.75475,
2.755,
2.75525,
2.7555,
2.75575,
2.756,
2.75625,
2.7565,
2.75675,
2.757,
2.75725,
2.7575,
2.75775,
2.758,
2.75825,
2.7585,
2.75875,
2.759,
2.75925,
2.7595,
2.75975,
2.76,
2.76025,
2.7605,
2.76075,
2.761,
2.76125,
2.7615,
2.76175,
2.762,
2.76225,
2.7625,
2.76275,
2.763,
2.76325,
2.7635,
2.76375,
2.764,
2.76425,
2.7645,
2.76475,
2.765,
2.76525,
2.7655,
2.76575,
2.766,
2.76625,
2.7665,
2.76675,
2.767,
2.76725,
2.7675,
2.76775,
2.768,
2.76825,
2.7685,
2.76875,
2.769,
2.76925,
2.7695,
2.76975,
2.77,
2.77025,
2.7705,
2.77075,
2.771,
2.77125,
2.7715,
2.77175,
2.772,
2.77225,
2.7725,
2.77275,
2.773,
2.77325,
2.7735,
2.77375,
2.774,
2.77425,
2.7745,
2.77475,
2.775,
2.77525,
2.7755,
2.77575,
2.776,
2.77625,
2.7765,
2.77675,
2.777,
2.77725,
2.7775,
2.77775,
2.778,
2.77825,
2.7785,
2.77875,
2.779,
2.77925,
2.7795,
2.77975,
2.78,
2.78025,
2.7805,
2.78075,
2.781,
2.78125,
2.7815,
2.78175,
2.782,
2.78225,
2.7825,
2.78275,
2.783,
2.78325,
2.7835,
2.78375,
2.784,
2.78425,
2.7845,
2.78475,
2.785,
2.78525,
2.7855,
2.78575,
2.786,
2.78625,
2.7865,
2.78675,
2.787,
2.78725,
2.7875,
2.78775,
2.788,
2.78825,
2.7885,
2.78875,
2.789,
2.78925,
2.7895,
2.78975,
2.79,
2.79025,
2.7905,
2.79075,
2.791,
2.79125,
2.7915,
2.79175,
2.792,
2.79225,
2.7925,
2.79275,
2.793,
2.79325,
2.7935,
2.79375,
2.794,
2.79425,
2.7945,
2.79475,
2.795,
2.79525,
2.7955,
2.79575,
2.796,
2.79625,
2.7965,
2.79675,
2.797,
2.79725,
2.7975,
2.79775,
2.798,
2.79825,
2.7985,
2.79875,
2.799,
2.79925,
2.7995,
2.79975,
2.8,
2.80025,
2.8005,
2.80075,
2.801,
2.80125,
2.8015,
2.80175,
2.802,
2.80225,
2.8025,
2.80275,
2.803,
2.80325,
2.8035,
2.80375,
2.804,
2.80425,
2.8045,
2.80475,
2.805,
2.80525,
2.8055,
2.80575,
2.806,
2.80625,
2.8065,
2.80675,
2.807,
2.80725,
2.8075,
2.80775,
2.808,
2.80825,
2.8085,
2.80875,
2.809,
2.80925,
2.8095,
2.80975,
2.81,
2.81025,
2.8105,
2.81075,
2.811,
2.81125,
2.8115,
2.81175,
2.812,
2.81225,
2.8125,
2.81275,
2.813,
2.81325,
2.8135,
2.81375,
2.814,
2.81425,
2.8145,
2.81475,
2.815,
2.81525,
2.8155,
2.81575,
2.816,
2.81625,
2.8165,
2.81675,
2.817,
2.81725,
2.8175,
2.81775,
2.818,
2.81825,
2.8185,
2.81875,
2.819,
2.81925,
2.8195,
2.81975,
2.82,
2.82025,
2.8205,
2.82075,
2.821,
2.82125,
2.8215,
2.82175,
2.822,
2.82225,
2.8225,
2.82275,
2.823,
2.82325,
2.8235,
2.82375,
2.824,
2.82425,
2.8245,
2.82475,
2.825,
2.82525,
2.8255,
2.82575,
2.826,
2.82625,
2.8265,
2.82675,
2.827,
2.82725,
2.8275,
2.82775,
2.828,
2.82825,
2.8285,
2.82875,
2.829,
2.82925,
2.8295,
2.82975,
2.83,
2.83025,
2.8305,
2.83075,
2.831,
2.83125,
2.8315,
2.83175,
2.832,
2.83225,
2.8325,
2.83275,
2.833,
2.83325,
2.8335,
2.83375,
2.834,
2.83425,
2.8345,
2.83475,
2.835,
2.83525,
2.8355,
2.83575,
2.836,
2.83625,
2.8365,
2.83675,
2.837,
2.83725,
2.8375,
2.83775,
2.838,
2.83825,
2.8385,
2.83875,
2.839,
2.83925,
2.8395,
2.83975,
2.84,
2.84025,
2.8405,
2.84075,
2.841,
2.84125,
2.8415,
2.84175,
2.842,
2.84225,
2.8425,
2.84275,
2.843,
2.84325,
2.8435,
2.84375,
2.844,
2.84425,
2.8445,
2.84475,
2.845,
2.84525,
2.8455,
2.84575,
2.846,
2.84625,
2.8465,
2.84675,
2.847,
2.84725,
2.8475,
2.84775,
2.848,
2.84825,
2.8485,
2.84875,
2.849,
2.84925,
2.8495,
2.84975,
2.85,
2.85025,
2.8505,
2.85075,
2.851,
2.85125,
2.8515,
2.85175,
2.852,
2.85225,
2.8525,
2.85275,
2.853,
2.85325,
2.8535,
2.85375,
2.854,
2.85425,
2.8545,
2.85475,
2.855,
2.85525,
2.8555,
2.85575,
2.856,
2.85625,
2.8565,
2.85675,
2.857,
2.85725,
2.8575,
2.85775,
2.858,
2.85825,
2.8585,
2.85875,
2.859,
2.85925,
2.8595,
2.85975,
2.86,
2.86025,
2.8605,
2.86075,
2.861,
2.86125,
2.8615,
2.86175,
2.862,
2.86225,
2.8625,
2.86275,
2.863,
2.86325,
2.8635,
2.86375,
2.864,
2.86425,
2.8645,
2.86475,
2.865,
2.86525,
2.8655,
2.86575,
2.866,
2.86625,
2.8665,
2.86675,
2.867,
2.86725,
2.8675,
2.86775,
2.868,
2.86825,
2.8685,
2.86875,
2.869,
2.86925,
2.8695,
2.86975,
2.87,
2.87025,
2.8705,
2.87075,
2.871,
2.87125,
2.8715,
2.87175,
2.872,
2.87225,
2.8725,
2.87275,
2.873,
2.87325,
2.8735,
2.87375,
2.874,
2.87425,
2.8745,
2.87475,
2.875,
2.87525,
2.8755,
2.87575,
2.876,
2.87625,
2.8765,
2.87675,
2.877,
2.87725,
2.8775,
2.87775,
2.878,
2.87825,
2.8785,
2.87875,
2.879,
2.87925,
2.8795,
2.87975,
2.88,
2.88025,
2.8805,
2.88075,
2.881,
2.88125,
2.8815,
2.88175,
2.882,
2.88225,
2.8825,
2.88275,
2.883,
2.88325,
2.8835,
2.88375,
2.884,
2.88425,
2.8845,
2.88475,
2.885,
2.88525,
2.8855,
2.88575,
2.886,
2.88625,
2.8865,
2.88675,
2.887,
2.88725,
2.8875,
2.88775,
2.888,
2.88825,
2.8885,
2.88875,
2.889,
2.88925,
2.8895,
2.88975,
2.89,
2.89025,
2.8905,
2.89075,
2.891,
2.89125,
2.8915,
2.89175,
2.892,
2.89225,
2.8925,
2.89275,
2.893,
2.89325,
2.8935,
2.89375,
2.894,
2.89425,
2.8945,
2.89475,
2.895,
2.89525,
2.8955,
2.89575,
2.896,
2.89625,
2.8965,
2.89675,
2.897,
2.89725,
2.8975,
2.89775,
2.898,
2.89825,
2.8985,
2.89875,
2.899,
2.89925,
2.8995,
2.89975,
2.9,
2.90025,
2.9005,
2.90075,
2.901,
2.90125,
2.9015,
2.90175,
2.902,
2.90225,
2.9025,
2.90275,
2.903,
2.90325,
2.9035,
2.90375,
2.904,
2.90425,
2.9045,
2.90475,
2.905,
2.90525,
2.9055,
2.90575,
2.906,
2.90625,
2.9065,
2.90675,
2.907,
2.90725,
2.9075,
2.90775,
2.908,
2.90825,
2.9085,
2.90875,
2.909,
2.90925,
2.9095,
2.90975,
2.91,
2.91025,
2.9105,
2.91075,
2.911,
2.91125,
2.9115,
2.91175,
2.912,
2.91225,
2.9125,
2.91275,
2.913,
2.91325,
2.9135,
2.91375,
2.914,
2.91425,
2.9145,
2.91475,
2.915,
2.91525,
2.9155,
2.91575,
2.916,
2.91625,
2.9165,
2.91675,
2.917,
2.91725,
2.9175,
2.91775,
2.918,
2.91825,
2.9185,
2.91875,
2.919,
2.91925,
2.9195,
2.91975,
2.92,
2.92025,
2.9205,
2.92075,
2.921,
2.92125,
2.9215,
2.92175,
2.922,
2.92225,
2.9225,
2.92275,
2.923,
2.92325,
2.9235,
2.92375,
2.924,
2.92425,
2.9245,
2.92475,
2.925,
2.92525,
2.9255,
2.92575,
2.926,
2.92625,
2.9265,
2.92675,
2.927,
2.92725,
2.9275,
2.92775,
2.928,
2.92825,
2.9285,
2.92875,
2.929,
2.92925,
2.9295,
2.92975,
2.93,
2.93025,
2.9305,
2.93075,
2.931,
2.93125,
2.9315,
2.93175,
2.932,
2.93225,
2.9325,
2.93275,
2.933,
2.93325,
2.9335,
2.93375,
2.934,
2.93425,
2.9345,
2.93475,
2.935,
2.93525,
2.9355,
2.93575,
2.936,
2.93625,
2.9365,
2.93675,
2.937,
2.93725,
2.9375,
2.93775,
2.938,
2.93825,
2.9385,
2.93875,
2.939,
2.93925,
2.9395,
2.93975,
2.94,
2.94025,
2.9405,
2.94075,
2.941,
2.94125,
2.9415,
2.94175,
2.942,
2.94225,
2.9425,
2.94275,
2.943,
2.94325,
2.9435,
2.94375,
2.944,
2.94425,
2.9445,
2.94475,
2.945,
2.94525,
2.9455,
2.94575,
2.946,
2.94625,
2.9465,
2.94675,
2.947,
2.94725,
2.9475,
2.94775,
2.948,
2.94825,
2.9485,
2.94875,
2.949,
2.94925,
2.9495,
2.94975,
2.95,
2.95025,
2.9505,
2.95075,
2.951,
2.95125,
2.9515,
2.95175,
2.952,
2.95225,
2.9525,
2.95275,
2.953,
2.95325,
2.9535,
2.95375,
2.954,
2.95425,
2.9545,
2.95475,
2.955,
2.95525,
2.9555,
2.95575,
2.956,
2.95625,
2.9565,
2.95675,
2.957,
2.95725,
2.9575,
2.95775,
2.958,
2.95825,
2.9585,
2.95875,
2.959,
2.95925,
2.9595,
2.95975,
2.96,
2.96025,
2.9605,
2.96075,
2.961,
2.96125,
2.9615,
2.96175,
2.962,
2.96225,
2.9625,
2.96275,
2.963,
2.96325,
2.9635,
2.96375,
2.964,
2.96425,
2.9645,
2.96475,
2.965,
2.96525,
2.9655,
2.96575,
2.966,
2.96625,
2.9665,
2.96675,
2.967,
2.96725,
2.9675,
2.96775,
2.968,
2.96825,
2.9685,
2.96875,
2.969,
2.96925,
2.9695,
2.96975,
2.97,
2.97025,
2.9705,
2.97075,
2.971,
2.97125,
2.9715,
2.97175,
2.972,
2.97225,
2.9725,
2.97275,
2.973,
2.97325,
2.9735,
2.97375,
2.974,
2.97425,
2.9745,
2.97475,
2.975,
2.97525,
2.9755,
2.97575,
2.976,
2.97625,
2.9765,
2.97675,
2.977,
2.97725,
2.9775,
2.97775,
2.978,
2.97825,
2.9785,
2.97875,
2.979,
2.97925,
2.9795,
2.97975,
2.98,
2.98025,
2.9805,
2.98075,
2.981,
2.98125,
2.9815,
2.98175,
2.982,
2.98225,
2.9825,
2.98275,
2.983,
2.98325,
2.9835,
2.98375,
2.984,
2.98425,
2.9845,
2.98475,
2.985,
2.98525,
2.9855,
2.98575,
2.986,
2.98625,
2.9865,
2.98675,
2.987,
2.98725,
2.9875,
2.98775,
2.988,
2.98825,
2.9885,
2.98875,
2.989,
2.98925,
2.9895,
2.98975,
2.99,
2.99025,
2.9905,
2.99075,
2.991,
2.99125,
2.9915,
2.99175,
2.992,
2.99225,
2.9925,
2.99275,
2.993,
2.99325,
2.9935,
2.99375,
2.994,
2.99425,
2.9945,
2.99475,
2.995,
2.99525,
2.9955,
2.99575,
2.996,
2.99625,
2.9965,
2.99675,
2.997,
2.99725,
2.9975,
2.99775,
2.998,
2.99825,
2.9985,
2.99875,
2.999,
2.99925,
2.9995,
2.99975,
3,
